Ewe/V	<I>/mA	
-9.3051761E-001	-1.086520496606828E-001
-9.3024069E-001	-7.462254140379073E-002
-9.2978477E-001	-6.296229848938872E-002
-9.2924035E-001	-5.847311939137167E-002
-9.2873883E-001	-5.566856344982729E-002
-9.2821133E-001	-5.364345161909023E-002
-9.2778140E-001	-5.195784663788872E-002
-9.2717016E-001	-5.052973369973348E-002
-9.2673093E-001	-4.925405707566233E-002
-9.2621750E-001	-4.805989987217363E-002
-9.2576385E-001	-4.701372482758093E-002
-9.2523855E-001	-4.603099482970169E-002
-9.2476821E-001	-4.511871157508424E-002
-9.2419273E-001	-4.423883792660288E-002
-9.2374146E-001	-4.343421688088989E-002
-9.2321861E-001	-4.267092114421994E-002
-9.2271239E-001	-4.193094504286399E-002
-9.2226350E-001	-4.122694057362186E-002
-9.2171431E-001	-4.054173189995169E-002
-9.2128694E-001	-3.987680601353027E-002
-9.2069954E-001	-3.922928226854616E-002
-9.2021012E-001	-3.861916873591254E-002
-9.1973966E-001	-3.804400924445066E-002
-9.1920727E-001	-3.747072548396835E-002
-9.1867238E-001	-3.693057702529090E-002
-9.1824508E-001	-3.638924619364034E-002
-9.1772693E-001	-3.584113978070158E-002
-9.1723728E-001	-3.533150718311212E-002
-9.1665244E-001	-3.482996222688200E-002
-9.1619402E-001	-3.434958039858271E-002
-9.1571164E-001	-3.388526015109939E-002
-9.1525567E-001	-3.343820622430543E-002
-9.1471118E-001	-3.297671152699910E-002
-9.1421229E-001	-3.252184628188803E-002
-9.1370839E-001	-3.208871099748051E-002
-9.1316885E-001	-3.166639291307571E-002
-9.1275811E-001	-3.126500798375187E-002
-9.1226864E-001	-3.086360339737308E-002
-9.1166461E-001	-3.047582024991990E-002
-9.1122282E-001	-3.009108565994012E-002
-9.1069520E-001	-2.969934115108253E-002
-9.1018188E-001	-2.932050511468687E-002
-9.0968752E-001	-2.895448401203071E-002
-9.0923637E-001	-2.861399020288015E-002
-9.0869910E-001	-2.827395803274957E-002
-9.0822154E-001	-2.791334804682322E-002
-9.0770578E-001	-2.756749910914902E-002
-9.0722108E-001	-2.723313657915424E-002
-9.0676028E-001	-2.691889055385810E-002
-9.0624452E-001	-2.660622143164959E-002
-9.0571928E-001	-2.629443402936732E-002
-9.0520829E-001	-2.597295537470348E-002
-9.0469247E-001	-2.565447413028904E-002
-9.0420300E-001	-2.536323308036063E-002
-9.0371841E-001	-2.507732853015812E-002
-9.0324074E-001	-2.480138662603430E-002
-9.0262717E-001	-2.452065589020972E-002
-9.0226668E-001	-2.423232545825238E-002
-9.0172231E-001	-2.394171185600252E-002
-9.0119445E-001	-2.368396115372154E-002
-9.0074575E-001	-2.342760726696401E-002
-9.0022516E-001	-2.317170501328275E-002
-8.9970225E-001	-2.290892410102349E-002
-8.9922470E-001	-2.264771168165885E-002
-8.9862549E-001	-2.238569643263316E-002
-8.9820760E-001	-2.215478316461139E-002
-8.9770859E-001	-2.192630631177164E-002
-8.9724296E-001	-2.168286413880241E-002
-8.9673197E-001	-2.143681755326798E-002
-8.9621389E-001	-2.119991862613302E-002
-8.9568615E-001	-2.097898006355514E-002
-8.9522779E-001	-2.075671598180626E-002
-8.9470720E-001	-2.054786257397512E-002
-8.9423919E-001	-2.032068755453376E-002
-8.9368290E-001	-2.009918475282046E-002
-8.9325082E-001	-1.987551314793279E-002
-8.9267999E-001	-1.968272077730626E-002
-8.9221925E-001	-1.947609898673112E-002
-8.9172500E-001	-1.928648573122821E-002
-8.9122117E-001	-1.908807991901543E-002
-8.9068639E-001	-1.888102171920553E-002
-8.9019692E-001	-1.867317239232308E-002
-8.8970506E-001	-1.848141656341672E-002
-8.8921076E-001	-1.829620325146414E-002
-8.8870221E-001	-1.811677261809516E-002
-8.8821512E-001	-1.794891928244241E-002
-8.8770646E-001	-1.776269261980276E-002
-8.8723141E-001	-1.755963226823865E-002
-8.8667983E-001	-1.738150370295932E-002
-8.8620943E-001	-1.720276647594145E-002
-8.8568896E-001	-1.704281388588124E-002
-8.8524240E-001	-1.687915574495913E-002
-8.8469803E-001	-1.671882729090037E-002
-8.8420141E-001	-1.653694292885521E-002
-8.8367367E-001	-1.635952845943371E-002
-8.8315320E-001	-1.618942283423849E-002
-8.8273543E-001	-1.604698765974320E-002
-8.8217908E-001	-1.589214320480325E-002
-8.8172299E-001	-1.574309056172990E-002
-8.8121682E-001	-1.557103022067435E-002
-8.8072252E-001	-1.540557956403070E-002
-8.8019729E-001	-1.524962949590858E-002
-8.7970304E-001	-1.510869693157160E-002
-8.7917292E-001	-1.496778036944413E-002
-8.7867624E-001	-1.483274338084326E-002
-8.7822026E-001	-1.468354562066808E-002
-8.7774271E-001	-1.452503889158824E-002
-8.7717682E-001	-1.437559502832525E-002
-8.7669450E-001	-1.424013255195879E-002
-8.7618828E-001	-1.411077698186378E-002
-8.7567502E-001	-1.398376599405371E-002
-8.7516409E-001	-1.383961311176260E-002
-8.7471032E-001	-1.369035126476792E-002
-8.7421131E-001	-1.355486533369604E-002
-8.7364072E-001	-1.343931232629103E-002
-8.7316787E-001	-1.331630236745007E-002
-8.7266648E-001	-1.318974358692304E-002
-8.7217700E-001	-1.304954288053032E-002
-8.7170905E-001	-1.291506480943000E-002
-8.7118381E-001	-1.278101578366391E-002
-8.7069672E-001	-1.267916238259374E-002
-8.7023115E-001	-1.256477145520271E-002
-8.6969382E-001	-1.243278679727682E-002
-8.6918998E-001	-1.230466109579993E-002
-8.6868620E-001	-1.217692907971737E-002
-8.6818719E-001	-1.206649483950092E-002
-8.6772639E-001	-1.196941283274877E-002
-8.6722964E-001	-1.185085902817369E-002
-8.6670202E-001	-1.172315926600739E-002
-8.6621970E-001	-1.159089402619545E-002
-8.6571115E-001	-1.149612514299325E-002
-8.6522406E-001	-1.139783786503853E-002
-8.6470360E-001	-1.129708276912098E-002
-8.6419976E-001	-1.116980235427643E-002
-8.6372709E-001	-1.105403227174556E-002
-8.6317062E-001	-1.094013047075751E-002
-8.6267889E-001	-1.084928742383148E-002
-8.6215353E-001	-1.075493979419892E-002
-8.6168069E-001	-1.065483015125029E-002
-8.6123198E-001	-1.053563760186455E-002
-8.6074710E-001	-1.043146668589304E-002
-8.6026013E-001	-1.032161703737241E-002
-8.5973477E-001	-1.023665472649027E-002
-8.5916173E-001	-1.014270845634754E-002
-8.5872722E-001	-1.005481866435118E-002
-8.5815173E-001	-9.937871444578445E-003
-8.5771239E-001	-9.834568846433418E-003
-8.5717285E-001	-9.736691801668765E-003
-8.5670000E-001	-9.651925625829463E-003
-8.5617959E-001	-9.574569878661940E-003
-8.5569006E-001	-9.479584114477722E-003
-8.5523880E-001	-9.373233415057664E-003
-8.5470635E-001	-9.271886391938211E-003
-8.5423112E-001	-9.189709357146108E-003
-8.5366529E-001	-9.109442754811098E-003
-8.5318065E-001	-9.036634077677672E-003
-8.5272694E-001	-8.936716378878912E-003
-8.5217774E-001	-8.838848134610735E-003
-8.5166198E-001	-8.738896757072879E-003
-8.5122508E-001	-8.664987077199041E-003
-8.5072845E-001	-8.590130172466986E-003
-8.5019594E-001	-8.519228654544595E-003
-8.4969932E-001	-8.424200181604794E-003
-8.4918600E-001	-8.335361624087656E-003
-8.4868461E-001	-8.237698087121178E-003
-8.4820473E-001	-8.172130432944582E-003
-8.4766263E-001	-8.099399876808632E-003
-8.4717560E-001	-8.032865256034944E-003
-8.4674340E-001	-7.944398514074538E-003
-8.4621817E-001	-7.856130734497021E-003
-8.4564507E-001	-7.764868817260600E-003
-8.4520090E-001	-7.708411761974218E-003
-8.4473306E-001	-7.642033198095574E-003
-8.4416467E-001	-7.568821104163237E-003
-8.4372056E-001	-7.479381534149829E-003
-8.4323359E-001	-7.397185038606396E-003
-8.4269142E-001	-7.326907383955860E-003
-8.4218526E-001	-7.266221019751579E-003
-8.4173173E-001	-7.209151244695732E-003
-8.4118479E-001	-7.126107942953097E-003
-8.4069300E-001	-7.043204078602733E-003
-8.4019160E-001	-6.967937766276188E-003
-8.3968061E-001	-6.915160335797755E-003
-8.3914822E-001	-6.851858675203256E-003
-8.3867782E-001	-6.778895200015872E-003
-8.3821940E-001	-6.703592657551854E-003
-8.3773220E-001	-6.617676284700724E-003
-8.3719981E-001	-6.569629596948470E-003
-8.3675092E-001	-6.518753790577155E-003
-8.3619940E-001	-6.444884139260212E-003
-8.3566213E-001	-6.368101646752347E-003
-8.3518946E-001	-6.297590762163081E-003
-8.3463788E-001	-6.252045876670456E-003
-8.3417702E-001	-6.196373020124782E-003
-8.3362556E-001	-6.125520815139410E-003
-8.3316225E-001	-6.060442272969202E-003
-8.3267272E-001	-5.986889320986879E-003
-8.3219993E-001	-5.938744207567414E-003
-8.3169138E-001	-5.881907431177814E-003
-8.3121389E-001	-5.831491385018095E-003
-8.3071482E-001	-5.762728380179548E-003
-8.3021820E-001	-5.698771160279673E-003
-8.2969052E-001	-5.632449930078696E-003
-8.2918435E-001	-5.586622435100677E-003
-8.2865191E-001	-5.543303189501770E-003
-8.2816952E-001	-5.478639746860748E-003
-8.2768488E-001	-5.417269839515140E-003
-8.2719296E-001	-5.354649499732730E-003
-8.2672977E-001	-5.292759705637307E-003
-8.2617587E-001	-5.246530782219004E-003
-8.2568872E-001	-5.169096757694468E-003
-8.2519925E-001	-5.131307441197726E-003
-8.2470751E-001	-5.083998138737160E-003
-8.2421315E-001	-5.035261246556739E-003
-8.2372367E-001	-4.963903217744986E-003
-8.2319832E-001	-4.906233048063709E-003
-8.2263726E-001	-4.860604753870568E-003
-8.2218599E-001	-4.826012363625065E-003
-8.2167029E-001	-4.776960074172873E-003
-8.2121181E-001	-4.717673551131077E-003
-8.2065070E-001	-4.652144372471532E-003
-8.2017559E-001	-4.602958427528307E-003
-8.1960493E-001	-4.572088477334327E-003
-8.1919420E-001	-4.529776398125018E-003
-8.1868571E-001	-4.482457580806176E-003
-8.1815082E-001	-4.416131829380047E-003
-8.1770670E-001	-4.360089058894940E-003
-8.1714803E-001	-4.320588134899494E-003
-8.1665373E-001	-4.286034976831719E-003
-8.1616908E-001	-4.246963492243447E-003
-8.1567240E-001	-4.196533778045964E-003
-8.1514710E-001	-4.137689376453202E-003
-8.1471258E-001	-4.085630234155629E-003
-8.1418723E-001	-4.042993219468952E-003
-8.1366915E-001	-4.015382030515463E-003
-8.1317490E-001	-3.975935878066883E-003
-8.1275702E-001	-3.932059391911983E-003
-8.1217682E-001	-3.870696361627998E-003
-8.1163722E-001	-3.825484888708375E-003
-8.1114769E-001	-3.784139211766683E-003
-8.1071800E-001	-3.758048013118437E-003
-8.1016880E-001	-3.723671375456376E-003
-8.0969125E-001	-3.673346176495007E-003
-8.0913740E-001	-3.613636496718468E-003
-8.0862153E-001	-3.575936052723383E-003
-8.0819184E-001	-3.549828272450484E-003
-8.0772138E-001	-3.519386874472410E-003
-8.0717224E-001	-3.477428950273073E-003
-8.0663747E-001	-3.426576665571113E-003
-8.0614311E-001	-3.375738982880995E-003
-8.0567998E-001	-3.339379779303017E-003
-8.0516410E-001	-3.318019985235024E-003
-8.0467236E-001	-3.295669116491704E-003
-8.0422831E-001	-3.237506210714426E-003
-8.0363846E-001	-3.188779388066429E-003
-8.0317289E-001	-3.149256255252815E-003
-8.0267143E-001	-3.124636747050748E-003
-8.0218434E-001	-3.103798339475924E-003
-8.0166864E-001	-3.060573723127197E-003
-8.0110276E-001	-3.014891156092126E-003
-8.0065864E-001	-2.968263424144871E-003
-8.0016440E-001	-2.935274696933825E-003
-7.9968208E-001	-2.913494291263211E-003
-7.9916400E-001	-2.889984511327804E-003
-7.9866254E-001	-2.855621305558921E-003
-7.9818022E-001	-2.801888237143148E-003
-7.9763103E-001	-2.760134604288807E-003
-7.9711533E-001	-2.730572990573735E-003
-7.9669511E-001	-2.712858228716836E-003
-7.9618174E-001	-2.686542148530736E-003
-7.9560387E-001	-2.640200516355558E-003
-7.9515022E-001	-2.594704784933247E-003
-7.9463929E-001	-2.566974882218263E-003
-7.9414982E-001	-2.551799025879306E-003
-7.9368663E-001	-2.524993349170210E-003
-7.9313976E-001	-2.477260777028462E-003
-7.9268378E-001	-2.433292383154751E-003
-7.9215127E-001	-2.404089241075533E-003
-7.9164988E-001	-2.386670733220811E-003
-7.9122728E-001	-2.367236146019976E-003
-7.9065663E-001	-2.334580023634628E-003
-7.9015523E-001	-2.294416067391188E-003
-7.8969193E-001	-2.254568011529602E-003
-7.8921920E-001	-2.229227175349166E-003
-7.8871304E-001	-2.214208047910639E-003
-7.8811610E-001	-2.188115842695731E-003
-7.8770542E-001	-2.154529015464153E-003
-7.8724217E-001	-2.110635570566434E-003
-7.8674793E-001	-2.076779336840626E-003
-7.8622985E-001	-2.058675187643994E-003
-7.8571409E-001	-2.050377932642469E-003
-7.8516734E-001	-2.022128810768444E-003
-7.8468257E-001	-1.978661682592385E-003
-7.8423375E-001	-1.936626979849765E-003
-7.8366309E-001	-1.912424726433972E-003
-7.8319263E-001	-1.904668393941565E-003
-7.8272474E-001	-1.884998630019930E-003
-7.8213018E-001	-1.851350953826755E-003
-7.8167892E-001	-1.808464714750012E-003
-7.8119427E-001	-1.785246487796269E-003
-7.8076684E-001	-1.768375945191934E-003
-7.8021049E-001	-1.756925046273034E-003
-7.7965182E-001	-1.725350409177868E-003
-7.7915514E-001	-1.682237328478102E-003
-7.7872533E-001	-1.654909399945146E-003
-7.7817619E-001	-1.644296913474896E-003
-7.7770102E-001	-1.631681641297528E-003
-7.7719486E-001	-1.599804975460984E-003
-7.7672690E-001	-1.562513521112966E-003
-7.7613950E-001	-1.530893646957632E-003
-7.7566910E-001	-1.516973847898711E-003
-7.7514619E-001	-1.508510194311388E-003
-7.7465439E-001	-1.487333483508390E-003
-7.7423650E-001	-1.445447191453402E-003
-7.7364194E-001	-1.409768144752325E-003
-7.7311426E-001	-1.392872173307349E-003
-7.7270359E-001	-1.386587610633279E-003
-7.7215689E-001	-1.369967602942223E-003
-7.7167213E-001	-1.342127683362115E-003
-7.7115399E-001	-1.304990852907957E-003
-7.7064067E-001	-1.278470579218691E-003
-7.7017260E-001	-1.273247490596031E-003
-7.6964259E-001	-1.258610733664407E-003
-7.6915795E-001	-1.235581683503866E-003
-7.6867557E-001	-1.201931462969295E-003
-7.6812404E-001	-1.168478844374918E-003
-7.6759630E-001	-1.151256803281282E-003
-7.6719284E-001	-1.149366984240528E-003
-7.6668906E-001	-1.135862936745301E-003
-7.6620674E-001	-1.107196525524799E-003
-7.6569808E-001	-1.072994284093271E-003
-7.6517045E-001	-1.044997447343776E-003
-7.6465470E-001	-1.035996118125123E-003
-7.6415092E-001	-1.029006585650253E-003
-7.6365191E-001	-1.013450136699477E-003
-7.6322210E-001	-9.798825161858628E-004
-7.6269919E-001	-9.436281504443395E-004
-7.6210946E-001	-9.279404653568073E-004
-7.6160806E-001	-9.237048016851012E-004
-7.6114720E-001	-9.145313753903227E-004
-7.6070553E-001	-8.924093814649779E-004
-7.6020408E-001	-8.610036628185821E-004
-7.5961906E-001	-8.333442595075836E-004
-7.5917500E-001	-8.129424432171744E-004
-7.5865686E-001	-8.057275175377324E-004
-7.5815058E-001	-8.008196224539420E-004
-7.5771135E-001	-7.786434669988835E-004
-7.5717169E-001	-7.468360045366547E-004
-7.5664645E-001	-7.178307495179347E-004
-7.5609243E-001	-7.073549588137631E-004
-7.5561732E-001	-7.035698885366950E-004
-7.5518274E-001	-6.921997021290017E-004
-7.5465983E-001	-6.692705751157432E-004
-7.5419194E-001	-6.425128797841592E-004
-7.5367373E-001	-6.138067220774045E-004
-7.5314373E-001	-5.926715011482318E-004
-7.5267565E-001	-5.853485345365672E-004
-7.5219339E-001	-5.843806229996612E-004
-7.5169921E-001	-5.706389778746301E-004
-7.5114048E-001	-5.470372712721942E-004
-7.5067002E-001	-5.139282058089345E-004
-7.5019723E-001	-4.896095492876735E-004
-7.4968147E-001	-4.780033610835253E-004
-7.4918491E-001	-4.759239538141757E-004
-7.4867636E-001	-4.709490741473303E-004
-7.4816293E-001	-4.461692353025411E-004
-7.4763769E-001	-4.242324933284337E-004
-7.4714100E-001	-3.930572021460088E-004
-7.4668503E-001	-3.839730458162060E-004
-7.4621224E-001	-3.803887931508607E-004
-7.4564874E-001	-3.738651598777409E-004
-7.4515212E-001	-3.546612366580049E-004
-7.4464834E-001	-3.258771617966548E-004
-7.4417073E-001	-3.056739598043334E-004
-7.4362403E-001	-2.808455240225936E-004
-7.4313444E-001	-2.667810870182752E-004
-7.4263787E-001	-2.573137467493748E-004
-7.4213886E-001	-2.501735005069202E-004
-7.4160159E-001	-2.445912911993196E-004
-7.4121958E-001	-2.292787244709943E-004
-7.4065369E-001	-2.103118138605420E-004
-7.4016660E-001	-1.868145598019945E-004
-7.3967713E-001	-1.624002475895064E-004
-7.3919719E-001	-1.493615401396369E-004
-7.3869109E-001	-1.374223904004935E-004
-7.3816818E-001	-1.284317703467752E-004
-7.3763806E-001	-1.211029583159657E-004
-7.3717487E-001	-1.082316549138596E-004
-7.3665673E-001	-8.967066920841050E-005
-7.3618162E-001	-7.243092133753348E-005
-7.3566586E-001	-4.832498479249916E-005
-7.3518109E-001	-3.008676227216322E-005
-7.3461765E-001	-1.421435598028144E-005
-7.3417348E-001	-8.811336237970445E-006
-7.3360765E-001	2.987884801329715E-006
-7.3316121E-001	8.023333001853158E-006
-7.3267877E-001	1.715940724302446E-005
-7.3220605E-001	2.911481702366308E-005
-7.3164493E-001	5.472412586899965E-005
-7.3113638E-001	7.472718394568068E-005
-7.3064691E-001	9.825677349832801E-005
-7.3014307E-001	1.148480214869207E-004
-7.2960830E-001	1.225699796403566E-004
-7.2916651E-001	1.260953199516508E-004
-7.2861737E-001	1.348478405794077E-004
-7.2815180E-001	1.442790407431872E-004
-7.2761214E-001	1.565559883943755E-004
-7.2714418E-001	1.775811725675523E-004
-7.2667623E-001	1.910007240863542E-004
-7.2614139E-001	2.176541227058102E-004
-7.2563279E-001	2.373149039844918E-004
-7.2509551E-001	2.480110229319248E-004
-7.2472066E-001	2.475121892158211E-004
-7.2414523E-001	2.545069797683951E-004
-7.2366059E-001	2.716237866955224E-004
-7.2316629E-001	3.026397880492738E-004
-7.2267199E-001	3.236795358243604E-004
-7.2210133E-001	3.383022887968948E-004
-7.2164774E-001	3.480041549028127E-004
-7.2115827E-001	3.556937805869586E-004
-7.2064489E-001	3.584056605392041E-004
-7.2015780E-001	3.628640788177900E-004
-7.1971130E-001	3.747401105551004E-004
-7.1913588E-001	3.993748127761187E-004
-7.1867746E-001	4.218108431555297E-004
-7.1816891E-001	4.443537442386913E-004
-7.1764600E-001	4.605383919746774E-004
-7.1717077E-001	4.605220368149882E-004
-7.1662170E-001	4.642994145846423E-004
-7.1611059E-001	4.735190902728173E-004
-7.1563792E-001	4.829567221455253E-004
-7.1514130E-001	4.956458337473501E-004
-7.1470195E-001	5.247533650223138E-004
-7.1415275E-001	5.483172270282404E-004
-7.1362752E-001	5.649371730934854E-004
-7.1313798E-001	5.716756925165534E-004
-7.1264857E-001	5.744100245898419E-004
-7.1212083E-001	5.804147871437647E-004
-7.1165526E-001	5.917478486998552E-004
-7.1118015E-001	6.074353613159425E-004
-7.1068585E-001	6.284297063255447E-004
-7.1012479E-001	6.479951455606765E-004
-7.0966154E-001	6.701378654170447E-004
-7.0912194E-001	6.802839555481756E-004
-7.0860857E-001	6.939272833314013E-004
-7.0812863E-001	7.123639030903930E-004
-7.0765346E-001	7.237758849036411E-004
-7.0714015E-001	7.432689531225098E-004
-7.0667452E-001	7.564287135335569E-004
-7.0616120E-001	7.672110299302868E-004
-7.0564544E-001	7.715796907622509E-004
-7.0518464E-001	7.721424201316212E-004
-7.0459491E-001	7.822666862723274E-004
-7.0413882E-001	7.952622798675967E-004
-7.0365888E-001	8.096303781499524E-004
-7.0310736E-001	8.265318807681408E-004
-7.0266086E-001	8.414242995564668E-004
-7.0218569E-001	8.539560344147492E-004
-7.0169139E-001	8.722398663201393E-004
-7.0117092E-001	8.949184506800677E-004
-7.0065522E-001	9.188239342562952E-004
-7.0008451E-001	9.380062572709527E-004
-6.9967145E-001	9.487485747038063E-004
-6.9914615E-001	9.526724236850540E-004
-6.9865435E-001	9.582018434838510E-004
-6.9818151E-001	9.703028272894134E-004
-6.9767064E-001	9.813093461140547E-004
-6.9715720E-001	1.010145885301335E-003
-6.9661999E-001	1.039019681109580E-003
-6.9611859E-001	1.053555278419615E-003
-6.9559097E-001	1.057816652762394E-003
-6.9512051E-001	1.059532326035641E-003
-6.9464773E-001	1.072953206524535E-003
-6.9414872E-001	1.097924385717614E-003
-6.9364971E-001	1.127152557120370E-003
-6.9311732E-001	1.143997311014161E-003
-6.9264686E-001	1.159975802959397E-003
-6.9210249E-001	1.164157915334724E-003
-6.9161534E-001	1.171758866285193E-003
-6.9115698E-001	1.180112383797014E-003
-6.9062930E-001	1.197006457219974E-003
-6.9012785E-001	1.220933484609849E-003
-6.8963122E-001	1.251351062496650E-003
-6.8913221E-001	1.274858574054244E-003
-6.8862361E-001	1.278914239964016E-003
-6.8815333E-001	1.285963116060715E-003
-6.8764472E-001	1.291682861827900E-003
-6.8715280E-001	1.308412490501128E-003
-6.8669683E-001	1.325081239912344E-003
-6.8610227E-001	1.360124054466394E-003
-6.8559605E-001	1.386979016282017E-003
-6.8511850E-001	1.401889348576858E-003
-6.8466014E-001	1.404217212145849E-003
-6.8420649E-001	1.415391218912320E-003
-6.8363100E-001	1.427379649263656E-003
-6.8310094E-001	1.453179322000897E-003
-6.8260670E-001	1.490769002959396E-003
-6.8211478E-001	1.507640578554291E-003
-6.8161583E-001	1.511678541394647E-003
-6.8114060E-001	1.516448660845998E-003
-6.8064404E-001	1.538672630905867E-003
-6.8018556E-001	1.568615405930452E-003
-6.7963642E-001	1.604024049299747E-003
-6.7912310E-001	1.614068400564039E-003
-6.7865980E-001	1.616467494438298E-003
-6.7811543E-001	1.627850319353356E-003
-6.7766416E-001	1.659405766139096E-003
-6.7712694E-001	1.690933050020750E-003
-6.7665416E-001	1.717986588453159E-003
-6.7613119E-001	1.735486484737314E-003
-6.7562509E-001	1.741275514768935E-003
-6.7517388E-001	1.751947458932736E-003
-6.7460072E-001	1.775683303276036E-003
-6.7408264E-001	1.817251332034967E-003
-6.7356926E-001	1.848189321403834E-003
-6.7315620E-001	1.856831064517388E-003
-6.7265004E-001	1.865850388057616E-003
-6.7211038E-001	1.882025094024950E-003
-6.7162567E-001	1.919637029871219E-003
-6.7109329E-001	1.955230959421748E-003
-6.7063719E-001	1.975685577723203E-003
-6.7016691E-001	1.981270344878779E-003
-6.6967499E-001	1.991793219988394E-003
-6.6914970E-001	2.022965275303677E-003
-6.6861731E-001	2.065119139098279E-003
-6.6820180E-001	2.096006266853231E-003
-6.6756427E-001	2.118037640610249E-003
-6.6713208E-001	2.121976492841661E-003
-6.6663545E-001	2.142202398683912E-003
-6.6617697E-001	2.180635633569891E-003
-6.6555619E-001	2.221649825256057E-003
-6.6512644E-001	2.251616944643362E-003
-6.6462976E-001	2.261823065022008E-003
-6.6415942E-001	2.272865364789281E-003
-6.6362935E-001	2.311765882554165E-003
-6.6309929E-001	2.357718592095319E-003
-6.6262656E-001	2.393247870840359E-003
-6.6214186E-001	2.404146619011642E-003
-6.6160458E-001	2.422764952263980E-003
-6.6115338E-001	2.452134673221071E-003
-6.6063750E-001	2.493467015772133E-003
-6.6010755E-001	2.540346984426910E-003
-6.5965384E-001	2.567298299437887E-003
-6.5913576E-001	2.575599791914008E-003
-6.5861523E-001	2.607812846404949E-003
-6.5813762E-001	2.651639824797388E-003
-6.5764105E-001	2.699691323953959E-003
-6.5705365E-001	2.734373577870764E-003
-6.5663344E-001	2.752286420304596E-003
-6.5614402E-001	2.776949705469659E-003
-6.5569991E-001	2.823593716068891E-003
-6.5504801E-001	2.872718220472654E-003
-6.5463018E-001	2.918691227866040E-003
-6.5414542E-001	2.935237799168690E-003
-6.5366316E-001	2.966512072282254E-003
-6.5317845E-001	3.012282779168394E-003
-6.5261018E-001	3.067856167544344E-003
-6.5205383E-001	3.120934316444262E-003
-6.5161449E-001	3.153539558590400E-003
-6.5114176E-001	3.184115086733080E-003
-6.5061170E-001	3.222704449483082E-003
-6.5016997E-001	3.282909455622652E-003
-6.4962804E-001	3.344883956384104E-003
-6.4912415E-001	3.388219703786846E-003
-6.4860839E-001	3.426871681494664E-003
-6.4814520E-001	3.461059258024548E-003
-6.4761758E-001	3.516649255393980E-003
-6.4714479E-001	3.590161926452046E-003
-6.4663857E-001	3.656949495842193E-003
-6.4616817E-001	3.703065813439252E-003
-6.4568353E-001	3.753007062830424E-003
-6.4513195E-001	3.803349243865370E-003
-6.4463300E-001	3.866059191352481E-003
-6.4412677E-001	3.950451516926117E-003
-6.4360386E-001	4.027288263817485E-003
-6.4317167E-001	4.079464884782211E-003
-6.4266551E-001	4.137736379487347E-003
-6.4210916E-001	4.215694979669312E-003
-6.4162922E-001	4.310975615912982E-003
-6.4109677E-001	4.389635095704586E-003
-6.4061445E-001	4.458473103219965E-003
-6.4010352E-001	4.535015198261117E-003
-6.3959968E-001	4.635317867490718E-003
-6.3917470E-001	4.741156468356477E-003
-6.3861352E-001	4.835550965894969E-003
-6.3814318E-001	4.917376083496114E-003
-6.3761550E-001	5.018850781469354E-003
-6.3711411E-001	5.144293941690071E-003
-6.3659126E-001	5.268197364973970E-003
-6.3610882E-001	5.380935779600346E-003
-6.3560510E-001	5.487032709146276E-003
-6.3514668E-001	5.622316321331727E-003
-6.3469297E-001	5.779196210212445E-003
-6.3408649E-001	5.928595737136195E-003
-6.3365197E-001	6.059700001963430E-003
-6.3310039E-001	6.211736151039885E-003
-6.3259661E-001	6.389511427246072E-003
-6.3217157E-001	6.552770978280595E-003
-6.3165587E-001	6.725193349367775E-003
-6.3112581E-001	6.915638868449564E-003
-6.3066971E-001	7.123799364988970E-003
-6.3014442E-001	7.341221074820262E-003
-6.2961435E-001	7.546690400226236E-003
-6.2916315E-001	7.770967662976509E-003
-6.2867367E-001	8.001017255985245E-003
-6.2816745E-001	8.264824531784704E-003
-6.2760639E-001	8.537091046744494E-003
-6.2715268E-001	8.796996072890057E-003
-6.2663460E-001	9.065891502875491E-003
-6.2614274E-001	9.360099095541016E-003
-6.2561023E-001	9.675177666457820E-003
-6.2513274E-001	1.000751105298976E-002
-6.2461209E-001	1.034039429842941E-002
-6.2415135E-001	1.066600167387266E-002
-6.2364274E-001	1.101764183386764E-002
-6.2313181E-001	1.137663426819522E-002
-6.2256837E-001	1.177486248623660E-002
-6.2215292E-001	1.216570829024637E-002
-6.2168968E-001	1.255596357821061E-002
-6.2114048E-001	1.295836140040027E-002
-6.2057698E-001	1.337877727515055E-002
-6.2012815E-001	1.382160023633200E-002
-6.1958855E-001	1.426468385777358E-002
-6.1918265E-001	1.469753364234067E-002
-6.1864060E-001	1.514385292733339E-002
-6.1810088E-001	1.562466916452620E-002
-6.1762339E-001	1.610172278671157E-002
-6.1716270E-001	1.658823702385050E-002
-6.1656803E-001	1.705790758470865E-002
-6.1614305E-001	1.752987890043349E-002
-6.1565840E-001	1.803646634021880E-002
-6.1511159E-001	1.854813407046235E-002
-6.1461502E-001	1.905511391253206E-002
-6.1412787E-001	1.954879822318820E-002
-6.1366224E-001	2.005327539659907E-002
-6.1315608E-001	2.056572535063583E-002
-6.1267376E-001	2.108977626250586E-002
-6.1213899E-001	2.160825798764088E-002
-6.1162794E-001	2.211769501040548E-002
-6.1112410E-001	2.261498273928247E-002
-6.1057025E-001	2.314484605090433E-002
-6.1014044E-001	2.367352447991605E-002
-6.0964614E-001	2.418715740540261E-002
-6.0907549E-001	2.469493892545310E-002
-6.0862422E-001	2.520864823778171E-002
-6.0813951E-001	2.572488937491121E-002
-6.0761416E-001	2.624603838791523E-002
-6.0714155E-001	2.676485010355228E-002
-6.0662580E-001	2.725394619097680E-002
-6.0614824E-001	2.774974450338396E-002
-6.0557759E-001	2.826579341220414E-002
-6.0511428E-001	2.877495956652423E-002
-6.0465109E-001	2.928165209403777E-002
-6.0409003E-001	2.976937036394335E-002
-6.0363162E-001	3.025836603683657E-002
-6.0312539E-001	3.075371443781699E-002
-6.0262156E-001	3.125538971629749E-002
-6.0208201E-001	3.175458984222817E-002
-6.0155678E-001	3.222108702176785E-002
-6.0113168E-001	3.270644790305499E-002
-6.0065889E-001	3.317841431366964E-002
-6.0007626E-001	3.364194214374858E-002
-5.9961307E-001	3.412903408037971E-002
-5.9911406E-001	3.460880737550925E-002
-5.9867233E-001	3.508047126902092E-002
-5.9806108E-001	3.552005053412727E-002
-5.9755737E-001	3.598450451693980E-002
-5.9708220E-001	3.642662958479953E-002
-5.9661895E-001	3.688241472006015E-002
-5.9615099E-001	3.733922282127677E-002
-5.9560657E-001	3.779562228731426E-002
-5.9513378E-001	3.822165575395564E-002
-5.9460139E-001	3.866523136255022E-002
-5.9411669E-001	3.908462083761973E-002
-5.9358895E-001	3.952520092377421E-002
-5.9312344E-001	3.995970120351489E-002
-5.9260291E-001	4.039518676761822E-002
-5.9213960E-001	4.079256450262547E-002
-5.9162396E-001	4.120170015617530E-002
-5.9114397E-001	4.162356851587523E-002
-5.9054708E-001	4.203987161725592E-002
-5.9014595E-001	4.245021135245247E-002
-5.8960634E-001	4.286597213900156E-002
-5.8910012E-001	4.324355442043781E-002
-5.8863455E-001	4.362672981621987E-002
-5.8811635E-001	4.404402811815245E-002
-5.8758152E-001	4.444173637671334E-002
-5.8715653E-001	4.482013511252170E-002
-5.8661932E-001	4.520354666586957E-002
-5.8609879E-001	4.557211816132345E-002
-5.8561647E-001	4.596211705211628E-002
-5.8515090E-001	4.634973665819331E-002
-5.8464944E-001	4.671222798070529E-002
-5.8415526E-001	4.706284436445119E-002
-5.8360130E-001	4.742922215445755E-002
-5.8311892E-001	4.780941550064943E-002
-5.8266294E-001	4.817595078693670E-002
-5.8214241E-001	4.851453105182124E-002
-5.8164340E-001	4.887553240338377E-002
-5.8110136E-001	4.921685401524856E-002
-5.8066446E-001	4.957823970951780E-002
-5.8007467E-001	4.994944242457411E-002
-5.7959235E-001	5.029829679979991E-002
-5.7917213E-001	5.062238534155358E-002
-5.7861102E-001	5.096391692770108E-002
-5.7815498E-001	5.131073343903120E-002
-5.7761538E-001	5.166688649825530E-002
-5.7711399E-001	5.202941506872038E-002
-5.7662451E-001	5.238098122798229E-002
-5.7611352E-001	5.271711555289792E-002
-5.7563835E-001	5.304338594733382E-002
-5.7507008E-001	5.342547296198918E-002
-5.7461405E-001	5.377086884937010E-002
-5.7409585E-001	5.414427765186380E-002
-5.7364470E-001	5.451869929044112E-002
-5.7306683E-001	5.486387133381232E-002
-5.7258457E-001	5.523595887196109E-002
-5.7208073E-001	5.564044620097875E-002
-5.7158881E-001	5.603943269405210E-002
-5.7112092E-001	5.644275067069304E-002
-5.7058847E-001	5.684948979159610E-002
-5.7011795E-001	5.727443560574191E-002
-5.6961185E-001	5.768603667284556E-002
-5.6909370E-001	5.815388367783946E-002
-5.6862575E-001	5.864057527025324E-002
-5.6810760E-001	5.912212590495136E-002
-5.6757754E-001	5.959355897046020E-002
-5.6707138E-001	6.012210293115338E-002
-5.6660342E-001	6.064081402139788E-002
-5.6608999E-001	6.119879865511013E-002
-5.6556475E-001	6.181085502110665E-002
-5.6510144E-001	6.241430801619030E-002
-5.6457621E-001	6.302643828676758E-002
-5.6411064E-001	6.368735430249619E-002
-5.6357574E-001	6.437388936912081E-002
-5.6309348E-001	6.509178936460419E-002
-5.6260633E-001	6.587063712637020E-002
-5.6204522E-001	6.667307745226392E-002
-5.6160355E-001	6.750564799240943E-002
-5.6109256E-001	6.839212266963113E-002
-5.6057918E-001	6.931909462442176E-002
-5.6013274E-001	7.027888927086967E-002
-5.5958354E-001	7.130201898058643E-002
-5.5908692E-001	7.240053724682239E-002
-5.5855924E-001	7.352860381947557E-002
-5.5810082E-001	7.472165965267452E-002
-5.5761379E-001	7.599968235110555E-002
-5.5710274E-001	7.733276353593821E-002
-5.5663240E-001	7.874398741977390E-002
-5.5611902E-001	8.025727421844379E-002
-5.5556262E-001	8.182994804753884E-002
-5.5509233E-001	8.349087084533484E-002
-5.5460048E-001	8.525051080533441E-002
-5.5408955E-001	8.710973512510223E-002
-5.5359757E-001	8.903745442131683E-002
-5.5306035E-001	9.109714108512735E-002
-5.5260438E-001	9.326882966196059E-002
-5.5204326E-001	9.550645848695372E-002
-5.5154186E-001	9.788952772827862E-002
-5.5110967E-001	1.004449654228097E-001
-5.5058676E-001	1.030965757435887E-001
-5.5017126E-001	1.058707426646355E-001
-5.4957670E-001	1.088404349273984E-001
-5.4914218E-001	1.119364177410571E-001
-5.4858595E-001	1.151899194500032E-001
-5.4801518E-001	1.186314727570634E-001
-5.4757828E-001	1.222149393172693E-001
-5.4705769E-001	1.259750311632777E-001
-5.4662323E-001	1.299859149563140E-001
-5.4610747E-001	1.341883255676114E-001
-5.4560602E-001	1.385803630827351E-001
-5.4513806E-001	1.432174265391175E-001
-5.4457211E-001	1.480922585112401E-001
-5.4411858E-001	1.531837439891374E-001
-5.4363143E-001	1.585584187311126E-001
-5.4309422E-001	1.642488642295699E-001
-5.4262388E-001	1.702381791698964E-001
-5.4203409E-001	1.765117941761526E-001
-5.4161859E-001	1.831677996281300E-001
-5.4108852E-001	1.901830002868512E-001
-5.4057753E-001	1.975927091892291E-001
-5.4010481E-001	2.055321475214151E-001
-5.3960818E-001	2.139270136980036E-001
-5.3912348E-001	2.228284935281338E-001
-5.3860539E-001	2.324049213285750E-001
-5.3809911E-001	2.427221488520956E-001
-5.3763360E-001	2.537781275153634E-001
-5.3713453E-001	2.658767743455011E-001
-5.3653514E-001	2.791235259998368E-001
-5.3605294E-001	2.936177340936776E-001
-5.3559691E-001	3.097429500939324E-001
-5.3508586E-001	3.278875970236932E-001
-5.3461552E-001	3.483278993347909E-001
-5.3411883E-001	3.716476758177967E-001
-5.3363186E-001	3.985125998277166E-001
-5.3310412E-001	4.295206279586381E-001
-5.3258836E-001	4.655291631058241E-001
-5.3214431E-001	5.075621025423260E-001
-5.3153539E-001	5.563824098197703E-001
-5.3111035E-001	6.128174752234897E-001
-5.3061140E-001	6.778793506175784E-001
-5.3010041E-001	7.518740098356904E-001
-5.2961808E-001	8.348976740328097E-001
-5.2907604E-001	9.272574927894039E-001
-5.2857703E-001	1.028451671324656E+000
-5.2813536E-001	1.137021035200348E+000
-5.2763391E-001	1.252457527235897E+000
-5.2712774E-001	1.373393666341187E+000
-5.2664548E-001	1.498247196211747E+000
-5.2617264E-001	1.625897776755630E+000
-5.2564979E-001	1.755565832020338E+000
-5.2508384E-001	1.885185127953161E+000
-5.2464688E-001	2.013447469707252E+000
-5.2418375E-001	2.140068676431561E+000
-5.2365845E-001	2.263962322320854E+000
-5.2317137E-001	2.383726608017523E+000
-5.2265078E-001	2.500063881795039E+000
-5.2209926E-001	2.611814307680298E+000
-5.2160501E-001	2.718024197008734E+000
-5.2114183E-001	2.820366136851005E+000
-5.2058786E-001	2.917726570232993E+000
-5.2012706E-001	3.010316365793325E+000
-5.1962799E-001	3.098471393896861E+000
-5.1912904E-001	3.182485064644570E+000
-5.1866579E-001	3.261830665195944E+000
-5.1816201E-001	3.337981802031422E+000
-5.1764148E-001	3.411720854262832E+000
-5.1718301E-001	3.481852011606008E+000
-5.1662195E-001	3.548781403506753E+000
-5.1610142E-001	3.614457375354756E+000
-5.1561433E-001	3.677579025705327E+000
-5.1516783E-001	3.738392632638653E+000
-5.1463300E-001	3.799011914786220E+000
-5.1410532E-001	3.858324517265530E+000
-5.1366597E-001	3.915367243404404E+000
-5.1310247E-001	3.972255426483059E+000
-5.1255566E-001	4.029102778105169E+000
-5.1212114E-001	4.084437281156994E+000
-5.1160777E-001	4.139545612768614E+000
-5.1108485E-001	4.194886582561523E+000
-5.1063842E-001	4.249126627654249E+000
-5.1011550E-001	4.303037670008271E+000
-5.0962836E-001	4.357843467188758E+000
-5.0912941E-001	4.411807948247478E+000
-5.0864470E-001	4.466103002852101E+000
-5.0810266E-001	4.521219329989108E+000
-5.0764900E-001	4.575718020378169E+000
-5.0709510E-001	4.629715589209184E+000
-5.0663185E-001	4.684828300330338E+000
-5.0613517E-001	4.739941181264477E+000
-5.0562185E-001	4.794609959537603E+000
-5.0509894E-001	4.850351347509377E+000
-5.0465959E-001	4.906075963543098E+000
-5.0407457E-001	4.961453344262445E+000
-5.0369024E-001	5.017809546189582E+000
-5.0310284E-001	5.074346464365327E+000
-5.0266594E-001	5.130529433461343E+000
-5.0211912E-001	5.186898241750846E+000
-5.0157708E-001	5.244035756743475E+000
-5.0117838E-001	5.300421873576198E+000
-5.0060058E-001	5.357061787885982E+000
-5.0011104E-001	5.414101113250664E+000
-4.9961680E-001	5.471228896089343E+000
-4.9914166E-001	5.527394853100638E+000
-4.9860445E-001	5.584355793133476E+000
-4.9815074E-001	5.641327863474522E+000
-4.9758497E-001	5.697057730035642E+000
-4.9710739E-001	5.754184220005600E+000
-4.9656299E-001	5.810851755029262E+000
-4.9610454E-001	5.866211461099425E+000
-4.9562460E-001	5.921631293654868E+000
-4.9509695E-001	5.977420026817341E+000
-4.9457401E-001	6.031719799365788E+000
-4.9409652E-001	6.085905054589260E+000
-4.9362612E-001	6.140189098399858E+000
-4.9314862E-001	6.192980119091046E+000
-4.9259946E-001	6.244573547515735E+000
-4.9205738E-001	6.297074296484211E+000
-4.9163240E-001	6.347986146540421E+000
-4.9107361E-001	6.397847766447072E+000
-4.9063677E-001	6.447921573450344E+000
-4.9008280E-001	6.497210590460526E+000
-4.8957896E-001	6.545043591727292E+000
-4.8911816E-001	6.593187223803007E+000
-4.8857141E-001	6.640626966474130E+000
-4.8808432E-001	6.685672386006659E+000
-4.8756379E-001	6.731402590526500E+000
-4.8708865E-001	6.776559251203537E+000
-4.8659679E-001	6.819892523924508E+000
-4.8607865E-001	6.862482119480759E+000
-4.8557004E-001	6.905659884148193E+000
-4.8506624E-001	6.946895213683433E+000
-4.8464602E-001	6.987120023833427E+000
-4.8411834E-001	7.027610880427802E+000
-4.8364317E-001	7.066787419570844E+000
-4.8308209E-001	7.104570487393204E+000
-4.8258543E-001	7.143025457938506E+000
-4.8203629E-001	7.180152971283846E+000
-4.8160651E-001	7.214086639151133E+000
-4.8115042E-001	7.249396635510124E+000
-4.8061085E-001	7.283958109974378E+000
-4.8016912E-001	7.317848103078860E+000
-4.7962236E-001	7.351291818435640E+000
-4.7908989E-001	7.384337455937217E+000
-4.7865531E-001	7.415365151164210E+000
-4.7810373E-001	7.446180102509786E+000
-4.7760716E-001	7.477392900183077E+000
-4.7708905E-001	7.507159226522555E+000
-4.7660667E-001	7.535845880401951E+000
-4.7608140E-001	7.564771891122703E+000
-4.7561815E-001	7.592450256611357E+000
-4.7516698E-001	7.618396063318358E+000
-4.7465357E-001	7.644874249763561E+000
-4.7404471E-001	7.670828152794755E+000
-4.7365549E-001	7.694489124412797E+000
-4.7310638E-001	7.718534180871785E+000
-4.7260261E-001	7.741649206775164E+000
-4.7215602E-001	7.762861025002237E+000
-4.7160211E-001	7.784487827226058E+000
-4.7115320E-001	7.805952014689523E+000
-4.7061121E-001	7.824099230715973E+000
-4.7014561E-001	7.841170027460663E+000
-4.6961555E-001	7.858473857853084E+000
-4.6909267E-001	7.873694597420567E+000
-4.6861270E-001	7.887284844716390E+000
-4.6811846E-001	7.900563346717121E+000
-4.6759319E-001	7.911511163009522E+000
-4.6717054E-001	7.919887195441462E+000
-4.6659750E-001	7.928665441446867E+000
-4.6609852E-001	7.935945251279322E+000
-4.6563286E-001	7.940336362732722E+000
-4.6512669E-001	7.943976750122118E+000
-4.6461338E-001	7.945948932086707E+000
-4.6413821E-001	7.944798325842129E+000
-4.6363440E-001	7.941587100318984E+000
-4.6313298E-001	7.936841377590952E+000
-4.6259812E-001	7.928755718072256E+000
-4.6212542E-001	7.917669983351004E+000
-4.6161205E-001	7.905094582127053E+000
-4.6110824E-001	7.888454693414488E+000
-4.6063784E-001	7.868710904967279E+000
-4.6015313E-001	7.846669068066177E+000
-4.5963505E-001	7.820966852025635E+000
-4.5908827E-001	7.790971820744637E+000
-4.5855579E-001	7.757660695406884E+000
-4.5812836E-001	7.718998207927768E+000
-4.5766047E-001	7.676079492112933E+000
-4.5708022E-001	7.630936062807195E+000
-4.5664087E-001	7.581935378588817E+000
-4.5610845E-001	7.527648436885123E+000
-4.5561409E-001	7.468393130356759E+000
-4.5513427E-001	7.404951233638570E+000
-4.5464718E-001	7.336463005116709E+000
-4.5416719E-001	7.262616823489907E+000
-4.5362997E-001	7.185111502362970E+000
-4.5312861E-001	7.101077160878098E+000
-4.5271796E-001	7.011776727020191E+000
-4.5211384E-001	6.917503399928411E+000
-4.5162669E-001	6.817833108954772E+000
-4.5103693E-001	6.712046038563741E+000
-4.5053789E-001	6.600860736052709E+000
-4.5010099E-001	6.482576978378844E+000
-4.4960436E-001	6.357444437550171E+000
-4.4907907E-001	6.226839512586583E+000
-4.4858000E-001	6.089568800621592E+000
-4.4809771E-001	5.945149802717871E+000
-4.4764170E-001	5.794232715116564E+000
-4.4710687E-001	5.637356703744935E+000
-4.4663405E-001	5.473939322425238E+000
-4.4613028E-001	5.304474728776341E+000
-4.4558588E-001	5.130899779602487E+000
-4.4511315E-001	4.951414510521609E+000
-4.4459262E-001	4.766736881954486E+000
-4.4404346E-001	4.577636289413572E+000
-4.4364709E-001	4.384986732139907E+000
-4.4310743E-001	4.189017313903253E+000
-4.4266337E-001	3.991782303294641E+000
-4.4213569E-001	3.793654548731453E+000
-4.4157216E-001	3.593725137322224E+000
-4.4108269E-001	3.394910480838554E+000
-4.4062662E-001	3.197870635654503E+000
-4.4010854E-001	3.004068561494161E+000
-4.3960240E-001	2.816157892021131E+000
-4.3909854E-001	2.634968988878123E+000
-4.3858516E-001	2.461261701438396E+000
-4.3812919E-001	2.296824184477696E+000
-4.3761814E-001	2.143033496880287E+000
-4.3709531E-001	2.000232314892159E+000
-4.3660820E-001	1.868281885618153E+000
-4.3607336E-001	1.747207855918404E+000
-4.3554801E-001	1.636039123273012E+000
-4.3509439E-001	1.534825813850133E+000
-4.3463597E-001	1.445451594903513E+000
-4.3412736E-001	1.367146809029904E+000
-4.3359968E-001	1.298876733398737E+000
-4.3306488E-001	1.239706742493638E+000
-4.3262315E-001	1.188744342171493E+000
-4.3205008E-001	1.144555043654300E+000
-4.3161318E-001	1.106267458577948E+000
-4.3108308E-001	1.073418660127462E+000
-4.3066996E-001	1.053339075883233E+000
-4.3047893E-001	1.050710293434429E+000