Ewe/V	<I>/mA	
-8.2815737E-001	-5.077370517411184E-002
-8.2762510E-001	-4.103409767441868E-002
-8.2716203E-001	-3.792719468112010E-002
-8.2665128E-001	-3.607489215811127E-002
-8.2615721E-001	-3.472936163765009E-002
-8.2565117E-001	-3.366591054972813E-002
-8.2510948E-001	-3.277863627317556E-002
-8.2464880E-001	-3.199858597979244E-002
-8.2412845E-001	-3.130136416815976E-002
-8.2356280E-001	-3.067282520562320E-002
-8.2313317E-001	-3.009319150634027E-002
-8.2255077E-001	-2.955189587709683E-002
-8.2207340E-001	-2.904485455992667E-002
-8.2164389E-001	-2.856349962416865E-002
-8.2112342E-001	-2.810709568590862E-002
-8.2060784E-001	-2.767460378664299E-002
-8.2015210E-001	-2.725836482526217E-002
-8.1960547E-001	-2.686345631703652E-002
-8.1907564E-001	-2.647748440105249E-002
-8.1864113E-001	-2.611150131170720E-002
-8.1814241E-001	-2.574913386842300E-002
-8.1767219E-001	-2.539788074260452E-002
-8.1709456E-001	-2.506268919842825E-002
-8.1665778E-001	-2.473464003519643E-002
-8.1617320E-001	-2.441832872555855E-002
-8.1561470E-001	-2.411226870045463E-002
-8.1512541E-001	-2.380718541293036E-002
-8.1460267E-001	-2.350894420293970E-002
-8.1414443E-001	-2.322019675810141E-002
-8.1364322E-001	-2.293824913488618E-002
-8.1315398E-001	-2.265681184353236E-002
-8.1261694E-001	-2.238837930036608E-002
-8.1214911E-001	-2.212594780013885E-002
-8.1160969E-001	-2.186178031649680E-002
-8.1112522E-001	-2.160655930498934E-002
-8.1058806E-001	-2.136003999575459E-002
-8.1012982E-001	-2.111618551448827E-002
-8.0959517E-001	-2.087661024791160E-002
-8.0912739E-001	-2.064457591480834E-002
-8.0863088E-001	-2.041091081194063E-002
-8.0811304E-001	-2.017993313119430E-002
-8.0763572E-001	-1.995841177570057E-002
-8.0711055E-001	-1.973875028997676E-002
-8.0664510E-001	-1.952472571128183E-002
-8.0613202E-001	-1.931432634319420E-002
-8.0563068E-001	-1.910409529868556E-002
-8.0508649E-001	-1.889287751075025E-002
-8.0468804E-001	-1.868954115245933E-002
-8.0411035E-001	-1.849162525837078E-002
-8.0368072E-001	-1.829878809111300E-002
-8.0316287E-001	-1.810293856408565E-002
-8.0257320E-001	-1.791213659769160E-002
-8.0210304E-001	-1.772100250043620E-002
-8.0160898E-001	-1.753458643515615E-002
-8.0108392E-001	-1.735502742550132E-002
-8.0057782E-001	-1.716975752423749E-002
-8.0010766E-001	-1.698456595410841E-002
-7.9956114E-001	-1.681074670155090E-002
-7.9907423E-001	-1.663814518709259E-002
-7.9853475E-001	-1.646535962220941E-002
-7.9808122E-001	-1.629848400701756E-002
-7.9760152E-001	-1.613213792626755E-002
-7.9710507E-001	-1.597071058354664E-002
-7.9657996E-001	-1.580996402095225E-002
-7.9613602E-001	-1.565091850283845E-002
-7.9556561E-001	-1.549032973650918E-002
-7.9513353E-001	-1.533334180840299E-002
-7.9457033E-001	-1.518244644917421E-002
-7.9408336E-001	-1.503178582702901E-002
-7.9355347E-001	-1.488362875054466E-002
-7.9313576E-001	-1.473735079497002E-002
-7.9256541E-001	-1.458905799895705E-002
-7.9208326E-001	-1.444197530666283E-002
-7.9155815E-001	-1.430231823727021E-002
-7.9109514E-001	-1.416303293692078E-002
-7.9059863E-001	-1.402293501821147E-002
-7.9007834E-001	-1.388623342597489E-002
-7.8958911E-001	-1.375051263429999E-002
-7.8907585E-001	-1.361301503148327E-002
-7.8856748E-001	-1.348072046929133E-002
-7.8812826E-001	-1.334947747445575E-002
-7.8755784E-001	-1.321567090746015E-002
-7.8709245E-001	-1.308745341090595E-002
-7.8657204E-001	-1.296301334168168E-002
-7.8610432E-001	-1.283598793137971E-002
-7.8557920E-001	-1.270913501345615E-002
-7.8505641E-001	-1.258876433853320E-002
-7.8459585E-001	-1.246657804520825E-002
-7.8409934E-001	-1.234901123677913E-002
-7.8360534E-001	-1.223061159010498E-002
-7.8309929E-001	-1.211239552608631E-002
-7.8259099E-001	-1.199242228174771E-002
-7.8209448E-001	-1.187844072530780E-002
-7.8159076E-001	-1.176499789170798E-002
-7.8110158E-001	-1.165525968901259E-002
-7.8065765E-001	-1.154388397956737E-002
-7.8008240E-001	-1.143407653735050E-002
-7.7960020E-001	-1.132370633773857E-002
-7.7905613E-001	-1.121560414715295E-002
-7.7866465E-001	-1.110990642225937E-002
-7.7808696E-001	-1.100207007013443E-002
-7.7757871E-001	-1.089855637686915E-002
-7.7711803E-001	-1.079639347234279E-002
-7.7667165E-001	-1.069528135360994E-002
-7.7607018E-001	-1.058850772611283E-002
-7.7559996E-001	-1.047372654661018E-002
-7.7503908E-001	-1.036591703536860E-002
-7.7460229E-001	-1.026067046078040E-002
-7.7404624E-001	-1.015959854947390E-002
-7.7360940E-001	-1.006168385411756E-002
-7.7313918E-001	-9.961928219936015E-003
-7.7254015E-001	-9.867002030196082E-003
-7.7205795E-001	-9.771601938884877E-003
-7.7155197E-001	-9.678618648004317E-003
-7.7102923E-001	-9.582509366185418E-003
-7.7054948E-001	-9.491241217919583E-003
-7.7009368E-001	-9.397448190225948E-003
-7.6958764E-001	-9.305869150044659E-003
-7.6907212E-001	-9.217623445539752E-003
-7.6856130E-001	-9.129566788696669E-003
-7.6809824E-001	-9.040260380954845E-003
-7.6757318E-001	-8.953914409349146E-003
-7.6711971E-001	-8.864986004143982E-003
-7.6658022E-001	-8.777934375733265E-003
-7.6610047E-001	-8.694591194836260E-003
-7.6563275E-001	-8.610428024424687E-003
-7.6507187E-001	-8.528081764563621E-003
-7.6463979E-001	-8.445031130232095E-003
-7.6411474E-001	-8.361451898911937E-003
-7.6355380E-001	-8.279085369946551E-003
-7.6310742E-001	-8.196724472399844E-003
-7.6258951E-001	-8.119177709649788E-003
-7.6208830E-001	-8.038589947898897E-003
-7.6159424E-001	-7.958146165216673E-003
-7.6108819E-001	-7.882093751460484E-003
-7.6055604E-001	-7.803963851375772E-003
-7.6006907E-001	-7.728316987148847E-003
-7.5957018E-001	-7.653759786472246E-003
-7.5908089E-001	-7.578702912265422E-003
-7.5856060E-001	-7.506832942613088E-003
-7.5820255E-001	-7.434761592978319E-003
-7.5759155E-001	-7.360941598340526E-003
-7.5706881E-001	-7.287348852331260E-003
-7.5660104E-001	-7.217610158873018E-003
-7.5605923E-001	-7.148051000345809E-003
-7.5563204E-001	-7.081182475868724E-003
-7.5508302E-001	-7.011254585935183E-003
-7.5454122E-001	-6.942229102740394E-003
-7.5413060E-001	-6.874564528093555E-003
-7.5359368E-001	-6.807906352736426E-003
-7.5309724E-001	-6.742258420934260E-003
-7.5256729E-001	-6.675773389568068E-003
-7.5212348E-001	-6.610840292841952E-003
-7.5156724E-001	-6.548627480227470E-003
-7.5108749E-001	-6.485041271949550E-003
-7.5060785E-001	-6.418824481142171E-003
-7.5006592E-001	-6.357283402396809E-003
-7.4959099E-001	-6.297481393309476E-003
-7.4908739E-001	-6.234747938203507E-003
-7.4859565E-001	-6.174615163974884E-003
-7.4811357E-001	-6.113017540037423E-003
-7.4759793E-001	-6.052404095005938E-003
-7.4706101E-001	-5.994313021238428E-003
-7.4659079E-001	-5.936945248212879E-003
-7.4610382E-001	-5.878626266717279E-003
-7.4559069E-001	-5.819002036380513E-003
-7.4509901E-001	-5.766896348252310E-003
-7.4454772E-001	-5.710048499355732E-003
-7.4404645E-001	-5.651743091161135E-003
-7.4357396E-001	-5.597792736906873E-003
-7.4301296E-001	-5.543426218353090E-003
-7.4255228E-001	-5.489674475409004E-003
-7.4202013E-001	-5.436338492914912E-003
-7.4158806E-001	-5.383153555805521E-003
-7.4105811E-001	-5.326842866875778E-003
-7.4056172E-001	-5.277671496488202E-003
-7.4005574E-001	-5.225349078236324E-003
-7.3959750E-001	-5.173490807727027E-003
-7.3905563E-001	-5.123340370896748E-003
-7.3853540E-001	-5.074671313410592E-003
-7.3808664E-001	-5.002873346596867E-003
-7.3754478E-001	-4.939993652724198E-003
-7.3710793E-001	-4.890427574084886E-003
-7.3659241E-001	-4.841342084780943E-003
-7.3607451E-001	-4.793207946244757E-003
-7.3556846E-001	-4.745562741822584E-003
-7.3506254E-001	-4.695910953596986E-003
-7.3454940E-001	-4.648548879976608E-003
-7.3411018E-001	-4.603792445120209E-003
-7.3353022E-001	-4.556250876254858E-003
-7.3308146E-001	-4.509242725882655E-003
-7.3259693E-001	-4.464890483695527E-003
-7.3209566E-001	-4.418914360661622E-003
-7.3147994E-001	-4.372881737104880E-003
-7.3101932E-001	-4.327554065602035E-003
-7.3060393E-001	-4.284822941717302E-003
-7.3008841E-001	-4.242296769767347E-003
-7.2955137E-001	-4.197985896368977E-003
-7.2911930E-001	-4.155072335107049E-003
-7.2859430E-001	-4.110730198112159E-003
-7.2805727E-001	-4.069938512005433E-003
-7.2756797E-001	-4.027302096097321E-003
-7.2707146E-001	-3.984243964015151E-003
-7.2656554E-001	-3.943752425221978E-003
-7.2604036E-001	-3.903745986535492E-003
-7.2552484E-001	-3.861822693444247E-003
-7.2501415E-001	-3.820553991001514E-003
-7.2454631E-001	-3.781149599403011E-003
-7.2409511E-001	-3.742653524425973E-003
-7.2353667E-001	-3.701093155005081E-003
-7.2302592E-001	-3.660563700721216E-003
-7.2256047E-001	-3.622458079119320E-003
-7.2208071E-001	-3.584965317321804E-003
-7.2153890E-001	-3.545286509074278E-003
-7.2100908E-001	-3.507387743660134E-003
-7.2060800E-001	-3.469569881833941E-003
-7.2006625E-001	-3.432792670972615E-003
-7.1961510E-001	-3.397344714595088E-003
-7.1910441E-001	-3.358845064798485E-003
-7.1856970E-001	-3.322885518547564E-003
-7.1806848E-001	-3.287898945320604E-003
-7.1751952E-001	-3.252065515204048E-003
-7.1702063E-001	-3.216861276762557E-003
-7.1652669E-001	-3.181136593902935E-003
-7.1607792E-001	-3.147582230484378E-003
-7.1555752E-001	-3.110844676712885E-003
-7.1508491E-001	-3.077766484787290E-003
-7.1455038E-001	-3.042898470002719E-003
-7.1408737E-001	-3.010358964250795E-003
-7.1356934E-001	-2.977829396969809E-003
-7.1307534E-001	-2.943530897310211E-003
-7.1257883E-001	-2.910485584949350E-003
-7.1201313E-001	-2.879796572128985E-003
-7.1154535E-001	-2.846628506772177E-003
-7.1104890E-001	-2.813346454386848E-003
-7.1057630E-001	-2.779911322955731E-003
-7.1006548E-001	-2.750709426818518E-003
-7.0957386E-001	-2.719608815262751E-003
-7.0906550E-001	-2.686267483472076E-003
-7.0857853E-001	-2.656272064002777E-003
-7.0807028E-001	-2.624923983942498E-003
-7.0756650E-001	-2.596096360784403E-003
-7.0704144E-001	-2.565969510658954E-003
-7.0651394E-001	-2.536948376187960E-003
-7.0604378E-001	-2.505994102003723E-003
-7.0555925E-001	-2.477483521087141E-003
-7.0507228E-001	-2.450296598712296E-003
-7.0458549E-001	-2.420187765801399E-003
-7.0405793E-001	-2.392300906267516E-003
-7.0357347E-001	-2.365280792127132E-003
-7.0302212E-001	-2.337717906112274E-003
-7.0249701E-001	-2.308106245665548E-003
-7.0203876E-001	-2.279426904447521E-003
-7.0153743E-001	-2.253072825063696E-003
-7.0106018E-001	-2.228057564708861E-003
-7.0061141E-001	-2.200213885377541E-003
-7.0007432E-001	-2.173726752171749E-003
-6.9957328E-001	-2.144819834973570E-003
-6.9906950E-001	-2.120053838449048E-003
-6.9860888E-001	-2.094383614991951E-003
-6.9806230E-001	-2.067765989475209E-003
-6.9756109E-001	-2.041021435059888E-003
-6.9708848E-001	-2.017397464583043E-003
-6.9652277E-001	-1.993230573897897E-003
-6.9607174E-001	-1.966664357476654E-003
-6.9556576E-001	-1.942007827413841E-003
-6.9506204E-001	-1.916852369787222E-003
-6.9457769E-001	-1.893308318802790E-003
-6.9411451E-001	-1.870702120386812E-003
-6.9353211E-001	-1.844977802714386E-003
-6.9302851E-001	-1.820941650219343E-003
-6.9254166E-001	-1.797874856007478E-003
-6.9207621E-001	-1.774198774216661E-003
-6.9159168E-001	-1.751821199692586E-003
-6.9106185E-001	-1.728943698674670E-003
-6.9061309E-001	-1.706793706516378E-003
-6.9009030E-001	-1.682393750381223E-003
-6.8955570E-001	-1.659666831519368E-003
-6.8902355E-001	-1.639551939138223E-003
-6.8856758E-001	-1.617018019732254E-003
-6.8808067E-001	-1.593181327668173E-003
-6.8760580E-001	-1.572572985897396E-003
-6.8705672E-001	-1.552223486787420E-003
-6.8660802E-001	-1.528626171905540E-003
-6.8605912E-001	-1.507752544755759E-003
-6.8552923E-001	-1.487216594676502E-003
-6.8507332E-001	-1.465793242540781E-003
-6.8461978E-001	-1.446655625764709E-003
-6.8406135E-001	-1.423947369793928E-003
-6.8356967E-001	-1.403244651448008E-003
-6.8299443E-001	-1.383135168071346E-003
-6.8250513E-001	-1.363217453434208E-003
-6.8207556E-001	-1.342009076976711E-003
-6.8157667E-001	-1.324122859911901E-003
-6.8106824E-001	-1.305007949148981E-003
-6.8051928E-001	-1.284382379444358E-003
-6.8002522E-001	-1.263848965345573E-003
-6.7953831E-001	-1.245854619516606E-003
-6.7908013E-001	-1.226927414854965E-003
-6.7857879E-001	-1.207002346041371E-003
-6.7805135E-001	-1.188169047589251E-003
-6.7754298E-001	-1.169324572025638E-003
-6.7703456E-001	-1.151675742557819E-003
-6.7652613E-001	-1.133187285296457E-003
-6.7606550E-001	-1.114203372898623E-003
-6.7551661E-001	-1.095997388972350E-003
-6.7500818E-001	-1.079396472987677E-003
-6.7455465E-001	-1.061250957080828E-003
-6.7403919E-001	-1.042003150716410E-003
-6.7361909E-001	-1.024524778436037E-003
-6.7307246E-001	-1.009159387788519E-003
-6.7256171E-001	-9.889901851930671E-004
-6.7207718E-001	-9.709605557814450E-004
-6.7150915E-001	-9.547302411413542E-004
-6.7105317E-001	-9.385858898504846E-004
-6.7056632E-001	-9.192607948856849E-004
-6.7004120E-001	-9.014744327389439E-004
-6.6954714E-001	-8.865887532061716E-004
-6.6911048E-001	-8.697141767101307E-004
-6.6859961E-001	-8.525404099681174E-004
-6.6807204E-001	-8.381510410313160E-004
-6.6749454E-001	-8.206443361977786E-004
-6.6704339E-001	-8.029511871082591E-004
-6.6655177E-001	-7.870956520459154E-004
-6.6597408E-001	-7.721994327865769E-004
-6.6549444E-001	-7.559612847528081E-004
-6.6508865E-001	-7.400424973826556E-004
-6.6453493E-001	-7.238338376960064E-004
-6.6403854E-001	-7.077791148809523E-004
-6.6354197E-001	-6.934786011450825E-004
-6.6302162E-001	-6.769811519949740E-004
-6.6256338E-001	-6.615544031768365E-004
-6.6203588E-001	-6.464389636774122E-004
-6.6156572E-001	-6.300908634685239E-004
-6.6101909E-001	-6.147895121875885E-004
-6.6058719E-001	-6.000820799241385E-004
-6.6002858E-001	-5.858851747886189E-004
-6.5955603E-001	-5.682538793131114E-004
-6.5899748E-001	-5.532807524204712E-004
-6.5856558E-001	-5.404472333415643E-004
-6.5801412E-001	-5.252716812729000E-004
-6.5748662E-001	-5.083437352836374E-004
-6.5701658E-001	-4.947080301351365E-004
-6.5652955E-001	-4.820468759332633E-004
-6.5608078E-001	-4.664940074681414E-004
-6.5560830E-001	-4.508897457435453E-004
-6.5504259E-001	-4.358282443424448E-004
-6.5452462E-001	-4.229027179026499E-004
-6.5409738E-001	-4.093822901527436E-004
-6.5355325E-001	-3.933148943263288E-004
-6.5299231E-001	-3.788141147711430E-004
-6.5250772E-001	-3.668982071691178E-004
-6.5204716E-001	-3.531253251912855E-004
-6.5154594E-001	-3.368737415410158E-004
-6.5106851E-001	-3.219685242685459E-004
-6.5057206E-001	-3.107834531915245E-004
-6.5007806E-001	-2.951104140554647E-004
-6.4956486E-001	-2.816518000201898E-004
-6.4906359E-001	-2.670976782402270E-004
-6.4852661E-001	-2.546165858634932E-004
-6.4803737E-001	-2.399111200566796E-004
-6.4756709E-001	-2.249525316900189E-004
-6.4707071E-001	-2.113069766596623E-004
-6.4655989E-001	-1.998411696975942E-004
-6.4605868E-001	-1.858495254151698E-004
-6.4555264E-001	-1.706173166954243E-004
-6.4499891E-001	-1.571890917199258E-004
-6.4452636E-001	-1.445090119051289E-004
-6.4407998E-001	-1.302733041210324E-004
-6.4351201E-001	-1.155583782455182E-004
-6.4302027E-001	-1.026687695297447E-004
-6.4257872E-001	-8.975226165619131E-005
-6.4209652E-001	-7.544260964859159E-005
-6.4151418E-001	-6.102905758276124E-005
-6.4100343E-001	-4.818408416872239E-005
-6.4052606E-001	-3.630956486745906E-005
-6.4003438E-001	-2.081502248131210E-005
-6.3957131E-001	-7.208536459948570E-006
-6.3904142E-001	5.554471036068362E-006
-6.3846385E-001	2.001308837366341E-005
-6.3808435E-001	3.454467565420946E-005
-6.3751388E-001	4.825002518214788E-005
-6.3706994E-001	5.995447395394627E-005
-6.3656873E-001	7.515295814394953E-005
-6.3604599E-001	8.857370466274504E-005
-6.3552803E-001	1.031285046413370E-004
-6.3504601E-001	1.168485883349816E-004
-6.3451135E-001	1.301276656603237E-004
-6.3400292E-001	1.466351079550070E-004
-6.3354701E-001	1.607463381841144E-004
-6.3305533E-001	1.742010511546904E-004
-6.3247293E-001	1.896040964296181E-004
-6.3202661E-001	2.047641415368270E-004
-6.3150632E-001	2.177658035128641E-004
-6.3104087E-001	2.321773037160819E-004
-6.3048714E-001	2.473252459095762E-004
-6.3001937E-001	2.624499140899874E-004
-6.2954676E-001	2.762252450305446E-004
-6.2903833E-001	2.915028932815935E-004
-6.2849414E-001	3.060137927578433E-004
-6.2803352E-001	3.229270812856207E-004
-6.2758487E-001	3.366682802100033E-004
-6.2699044E-001	3.521282921854863E-004
-6.2655139E-001	3.686760264240306E-004
-6.2602144E-001	3.847445209830634E-004
-6.2554169E-001	4.006867799495643E-004
-6.2505245E-001	4.159842235489265E-004
-6.2453449E-001	4.340642374044412E-004
-6.2400222E-001	4.489432315643136E-004
-6.2358212E-001	4.654634506324933E-004
-6.2304509E-001	4.829987750144972E-004
-6.2256539E-001	5.002783732116963E-004
-6.2212378E-001	5.165787240307002E-004
-6.2152714E-001	5.349304822451287E-004
-6.2099963E-001	5.525878461455908E-004
-6.2053412E-001	5.693666681774920E-004
-6.1999714E-001	5.893535334762483E-004
-6.1951506E-001	6.075265067319071E-004
-6.1899710E-001	6.257954313094588E-004
-6.1853164E-001	6.448705161864713E-004
-6.1803043E-001	6.647559944305555E-004
-6.1755788E-001	6.832283740082984E-004
-6.1699450E-001	7.026914582629363E-004
-6.1649811E-001	7.241695561983619E-004
-6.1601597E-001	7.440594545249428E-004
-6.1552429E-001	7.643885910837965E-004
-6.1499441E-001	7.857235166210093E-004
-6.1453617E-001	8.069666639734883E-004
-6.1404210E-001	8.276812386077276E-004
-6.1353129E-001	8.499820244502468E-004
-6.1301583E-001	8.735514322130103E-004
-6.1255503E-001	8.945312393818725E-004
-6.1196315E-001	9.175334146872959E-004
-6.1151922E-001	9.408146608041361E-004
-6.1103469E-001	9.637237312067406E-004
-6.1050719E-001	9.885226534044897E-004
-6.1005610E-001	1.012853857214439E-003
-6.0953343E-001	1.036957258437790E-003
-6.0908473E-001	1.061600262647363E-003
-6.0850465E-001	1.088495600756291E-003
-6.0802740E-001	1.114752038395552E-003
-6.0749751E-001	1.138747795272212E-003
-6.0701531E-001	1.166040762424956E-003
-6.0651165E-001	1.193593748602293E-003
-6.0599381E-001	1.218565703754216E-003
-6.0551405E-001	1.246625086574713E-003
-6.0501039E-001	1.275356281810712E-003
-6.0447824E-001	1.300284193685603E-003
-6.0401994E-001	1.328619532165543E-003
-6.0351151E-001	1.359502041815345E-003
-6.0297686E-001	1.388238161943229E-003
-6.0256875E-001	1.415125460577604E-003
-6.0205078E-001	1.445353954860068E-003
-6.0153282E-001	1.476250425843883E-003
-6.0103405E-001	1.503847534252067E-003
-6.0049939E-001	1.533705587359085E-003
-6.0006255E-001	1.565978558765405E-003
-5.9956855E-001	1.596337913166733E-003
-5.9905064E-001	1.626440074869893E-003
-5.9848964E-001	1.659570585217493E-003
-5.9799796E-001	1.690892327045543E-003
-5.9752536E-001	1.721367410618274E-003
-5.9699076E-001	1.756040698939882E-003
-5.9649187E-001	1.789215437440650E-003
-5.9603608E-001	1.820455215754595E-003
-5.9556586E-001	1.855036566822491E-003
-5.9499538E-001	1.889484099868131E-003
-5.9447980E-001	1.921856830837343E-003
-5.9397864E-001	1.959167741924068E-003
-5.9355134E-001	1.993688332869368E-003
-5.9299046E-001	2.025587979169244E-003
-5.9256804E-001	2.062006149427373E-003
-5.9199756E-001	2.097520209357384E-003
-5.9149867E-001	2.132998231397336E-003
-5.9105009E-001	2.169116445385671E-003
-5.9046048E-001	2.206541356192120E-003
-5.9005469E-001	2.243397902785410E-003
-5.8955109E-001	2.279513761207616E-003
-5.8899015E-001	2.316906810975867E-003
-5.8846748E-001	2.353684692321011E-003
-5.8802354E-001	2.391468721233413E-003
-5.8749378E-001	2.432118964856761E-003
-5.8700919E-001	2.469079639075736E-003
-5.8653891E-001	2.510039596058247E-003
-5.8600187E-001	2.547797673314610E-003
-5.8548158E-001	2.587820439120283E-003
-5.8504480E-001	2.628719402487212E-003
-5.8455789E-001	2.668095295280197E-003
-5.8403999E-001	2.712326810071080E-003
-5.8352441E-001	2.752713337490029E-003
-5.8299452E-001	2.795090631557393E-003
-5.8248627E-001	2.840078869603635E-003
-5.8195388E-001	2.881091503727801E-003
-5.8151472E-001	2.924553049029034E-003
-5.8102065E-001	2.970283105698669E-003
-5.8050513E-001	3.011789935892712E-003
-5.7997763E-001	3.055571723442118E-003
-5.7954079E-001	3.102366027188691E-003
-5.7905638E-001	3.147174444242638E-003
-5.7849067E-001	3.193584198676554E-003
-5.7798702E-001	3.240212872930532E-003
-5.7747871E-001	3.287965997696693E-003
-5.7702285E-001	3.335380580882494E-003
-5.7648331E-001	3.384005470463622E-003
-5.7605374E-001	3.432317761174593E-003
-5.7546896E-001	3.479943939932881E-003
-5.7506317E-001	3.532615647300716E-003
-5.7448083E-001	3.584334991441146E-003
-5.7407272E-001	3.634760088537581E-003
-5.7349271E-001	3.688423438740409E-003
-5.7302725E-001	3.742129438667988E-003
-5.7252127E-001	3.795362814032904E-003
-5.7201999E-001	3.851442773473823E-003
-5.7155222E-001	3.910277029020619E-003
-5.7096982E-001	3.967433080752217E-003
-5.7054263E-001	4.025147240446839E-003
-5.6999362E-001	4.087713713280025E-003
-5.6951147E-001	4.150341112614503E-003
-5.6898165E-001	4.210822112204415E-003
-5.6854486E-001	4.277305538450585E-003
-5.6797445E-001	4.344767534592439E-003
-5.6751370E-001	4.412290049614062E-003
-5.6697428E-001	4.480656893041016E-003
-5.6649697E-001	4.554893251250982E-003
-5.6599569E-001	4.629482369058580E-003
-5.6546348E-001	4.707922675123396E-003
-5.6504101E-001	4.789724894090533E-003
-5.6452543E-001	4.875483158472249E-003
-5.6398129E-001	4.962426517687656E-003
-5.6355643E-001	5.054141813259149E-003
-5.6303376E-001	5.150982560164517E-003
-5.6250858E-001	5.252165572813578E-003
-5.6199312E-001	5.363562729167437E-003
-5.6154674E-001	5.477817757560810E-003
-5.6105030E-001	5.597493513768155E-003
-5.6049180E-001	5.728286201039706E-003
-5.5996668E-001	5.868361855785070E-003
-5.5956328E-001	6.016628244587471E-003
-5.5897617E-001	6.176898561177993E-003
-5.5850118E-001	6.353205887630324E-003
-5.5806917E-001	6.540707393990930E-003
-5.5749393E-001	6.744246215272671E-003
-5.5699277E-001	6.970088029264576E-003
-5.5647963E-001	7.213903708779612E-003
-5.5600935E-001	7.478527982897193E-003
-5.5551523E-001	7.770984175643425E-003
-5.5499500E-001	8.092635552770954E-003
-5.5453426E-001	8.444992143978952E-003
-5.5402827E-001	8.832760857395359E-003
-5.5346268E-001	9.259905981576943E-003
-5.5300438E-001	9.709712388772301E-003
-5.5248642E-001	1.023627568483321E-002
-5.5194706E-001	1.082273923494789E-002
-5.5137175E-001	1.146657054522990E-002
-5.5096364E-001	1.218571294365528E-002
-5.5048627E-001	1.298180294352888E-002
-5.5001372E-001	1.386563699968985E-002
-5.4945517E-001	1.485217134488082E-002
-5.4898018E-001	1.595428277834515E-002
-5.4845995E-001	1.717274276620018E-002
-5.4803270E-001	1.852818463390249E-002
-5.4751468E-001	2.003775839935940E-002
-5.4700392E-001	2.172004784689789E-002
-5.4653138E-001	2.358275139622198E-002
-5.4597759E-001	2.566514032913592E-002
-5.4552650E-001	2.797693395620351E-002
-5.4501098E-001	3.053098365448038E-002
-5.4445487E-001	3.337994639924785E-002
-5.4394168E-001	3.653952819888276E-002
-5.4345959E-001	4.002726492662140E-002
-5.4303944E-001	4.388744830166474E-002
-5.4247856E-001	4.816563389090825E-002
-5.4201311E-001	5.287203218353040E-002
-5.4150712E-001	5.806097710740882E-002
-5.4098201E-001	6.377561300144108E-002
-5.4048318E-001	7.005344483972320E-002
-5.3997719E-001	7.693144975343524E-002
-5.3945684E-001	8.450146188350849E-002
-5.3899860E-001	9.276025609648908E-002
-5.3852606E-001	1.017437180713236E-001
-5.3795558E-001	1.113199042758057E-001
-5.3753304E-001	1.219132047531895E-001
-5.3697932E-001	1.334116166263994E-001
-5.3647810E-001	1.458939346513812E-001
-5.3597450E-001	1.593419331828740E-001
-5.3547567E-001	1.737916319748284E-001
-5.3498644E-001	1.892938170347533E-001
-5.3456396E-001	2.058748175717588E-001
-5.3398389E-001	2.235580412343257E-001
-5.3351372E-001	2.423736161105763E-001
-5.3301966E-001	2.624276197311346E-001
-5.3250891E-001	2.835834529534012E-001
-5.3201485E-001	3.058854106904478E-001
-5.3149211E-001	3.294480437497585E-001
-5.3099799E-001	3.541160733970736E-001
-5.3047532E-001	3.798644554046810E-001
-5.3003621E-001	4.068077747829357E-001
-5.2949196E-001	4.348431965630120E-001
-5.2897161E-001	4.638212491909979E-001
-5.2849424E-001	4.938758987062517E-001
-5.2797401E-001	5.248267127432458E-001
-5.2752525E-001	5.566952119348159E-001
-5.2705264E-001	5.895115045214378E-001
-5.2650374E-001	6.231848547369521E-001
-5.2596194E-001	6.575265359281665E-001
-5.2547258E-001	6.925374803806918E-001
-5.2494514E-001	7.281348699775972E-001
-5.2453220E-001	7.644069601246510E-001
-5.2403331E-001	8.011796108690365E-001
-5.2354646E-001	8.385902563784607E-001
-5.2299035E-001	8.763520885390755E-001
-5.2252972E-001	9.143633397929101E-001
-5.2202362E-001	9.527220504804124E-001
-5.2153206E-001	9.914237312511985E-001
-5.2097827E-001	1.030220991389651E+000
-5.2050328E-001	1.069410830978043E+000
-5.2004975E-001	1.106808539076647E+000
-5.1950318E-001	1.145718572891959E+000
-5.1904732E-001	1.185230397728875E+000
-5.1850069E-001	1.224832017053412E+000
-5.1802814E-001	1.264285105651579E+000
-5.1756036E-001	1.303744201593172E+000
-5.1701134E-001	1.343437529710448E+000
-5.1652443E-001	1.382848884620802E+000
-5.1602560E-001	1.422143216092915E+000
-5.1549810E-001	1.461249452543912E+000
-5.1502317E-001	1.500349053826756E+000
-5.1454103E-001	1.539292358431073E+000
-5.1395631E-001	1.578420601501964E+000
-5.1347417E-001	1.617379772570961E+000
-5.1302785E-001	1.656027509772791E+000
-5.1256478E-001	1.694630821165951E+000
-5.1203966E-001	1.733120706735526E+000
-5.1149070E-001	1.771671257091775E+000
-5.1102763E-001	1.810134702754020E+000
-5.1045251E-001	1.848534436578941E+000
-5.1000130E-001	1.886657823614556E+000
-5.0951689E-001	1.924767859116370E+000
-5.0898224E-001	1.962841007185496E+000
-5.0847137E-001	2.000832551864224E+000
-5.0803459E-001	2.038570016459047E+000
-5.0754058E-001	2.076663736866887E+000
-5.0702739E-001	2.114325090744803E+000
-5.0651419E-001	2.152015763169132E+000
-5.0602257E-001	2.189794281830372E+000
-5.0556904E-001	2.227538147304703E+000
-5.0508213E-001	2.264744367593906E+000
-5.0449026E-001	2.302250366233640E+000
-5.0402242E-001	2.339855690581734E+000
-5.0349724E-001	2.377025756797813E+000
-5.0304860E-001	2.414370806556565E+000
-5.0247574E-001	2.451694519528868E+000
-5.0199598E-001	2.489005127700654E+000
-5.0145185E-001	2.526414175247472E+000
-5.0102937E-001	2.564068119022657E+000
-5.0052571E-001	2.601550667821499E+000
-4.9998155E-001	2.639051961445894E+000
-4.9947798E-001	2.676497480345887E+000
-4.9907690E-001	2.714054818410892E+000
-4.9843726E-001	2.751779719385837E+000
-4.9801001E-001	2.789825952189847E+000
-4.9744201E-001	2.828038277791798E+000
-4.9705771E-001	2.865884729665311E+000
-4.9652541E-001	2.904032658378487E+000
-4.9608153E-001	2.942222830023005E+000
-4.9547288E-001	2.980367591033442E+000
-4.9501458E-001	3.018666445049313E+000
-4.9450621E-001	3.057208601841708E+000
-4.9403602E-001	3.095676661325984E+000
-4.9358729E-001	3.134210739073204E+000
-4.9302876E-001	3.172874713333842E+000
-4.9247742E-001	3.211521073080334E+000
-4.9197856E-001	3.250252061062451E+000
-4.9156326E-001	3.289572015363612E+000
-4.9094516E-001	3.328589624351199E+000
-4.9052504E-001	3.367610540375068E+000
-4.8997605E-001	3.406716172327016E+000
-4.8947960E-001	3.446088930055339E+000
-4.8904282E-001	3.485294220805450E+000
-4.8852250E-001	3.525016317419786E+000
-4.8798543E-001	3.564948979881180E+000
-4.8749384E-001	3.604522021860028E+000
-4.8701879E-001	3.644517475451664E+000
-4.8654857E-001	3.684320064852670E+000
-4.8600200E-001	3.724453016199387E+000
-4.8555812E-001	3.764942691358513E+000
-4.8500195E-001	3.805787963811170E+000
-4.8455080E-001	3.846474097439128E+000
-4.8403054E-001	3.887286462736547E+000
-4.8357469E-001	3.928098368964342E+000
-4.8304000E-001	3.969236899034175E+000
-4.8253405E-001	4.010430983194624E+000
-4.8199937E-001	4.052284997792995E+000
-4.8156258E-001	4.094174041475441E+000
-4.8103511E-001	4.135778811064050E+000
-4.8056015E-001	4.177930497831000E+000
-4.7998253E-001	4.220472722156479E+000
-4.7956240E-001	4.262509937685373E+000
-4.7899678E-001	4.305053517056933E+000
-4.7849792E-001	4.347981278906502E+000
-4.7802058E-001	4.390796143828854E+000
-4.7751454E-001	4.433706124432163E+000
-4.7701570E-001	4.476536124202909E+000
-4.7651446E-001	4.519714464290608E+000
-4.7606814E-001	4.563027427600488E+000
-4.7553584E-001	4.606949428419363E+000
-4.7498214E-001	4.650748254197579E+000
-4.7449765E-001	4.694317195943384E+000
-4.7407761E-001	4.738130613545742E+000
-4.7353333E-001	4.782271474763135E+000
-4.7299638E-001	4.826360715103594E+000
-4.7253567E-001	4.871116221369263E+000
-4.7196522E-001	4.916104299904692E+000
-4.7146162E-001	4.960559674712897E+000
-4.7102481E-001	5.005539259606579E+000
-4.7049499E-001	5.050465231510842E+000
-4.7002476E-001	5.095699767704380E+000
-4.6953070E-001	5.140852512110897E+000
-4.6897218E-001	5.186977393284296E+000
-4.6849245E-001	5.232627843677402E+000
-4.6799842E-001	5.278262482100487E+000
-4.6752337E-001	5.324846547470486E+000
-4.6701261E-001	5.370877745062296E+000
-4.6648753E-001	5.416847569667453E+000
-4.6598393E-001	5.463625482894734E+000
-4.6545643E-001	5.510402191319210E+000
-4.6500054E-001	5.556642368285594E+000
-4.6451366E-001	5.603398329865259E+000
-4.6395749E-001	5.650272285181877E+000
-4.6348730E-001	5.696993835590065E+000
-4.6295741E-001	5.744408495540860E+000
-4.6248245E-001	5.792073176247748E+000
-4.6195742E-001	5.839321097718426E+000
-4.6155879E-001	5.887015421016315E+000
-4.6102655E-001	5.934223252789728E+000
-4.6052527E-001	5.982093287790583E+000
-4.5997635E-001	6.029836115449293E+000
-4.5953482E-001	6.078671324043057E+000
-4.5897150E-001	6.127206033568470E+000
-4.5846072E-001	6.175198213194264E+000
-4.5799768E-001	6.223698480658214E+000
-4.5752266E-001	6.272384022368925E+000
-4.5699283E-001	6.320680708635017E+000
-4.5652026E-001	6.369978465331652E+000
-4.5599517E-001	6.419428745642086E+000
-4.5550108E-001	6.468398144593274E+000
-4.5503566E-001	6.517712162150016E+000
-4.5447719E-001	6.567536070646994E+000
-4.5402601E-001	6.616832217427267E+000
-4.5341742E-001	6.666150461366726E+000
-4.5293766E-001	6.716225529169037E+000
-4.5244837E-001	6.765825093932719E+000
-4.5194000E-001	6.815179186154324E+000
-4.5146263E-001	6.864569943714286E+000
-4.5094225E-001	6.914073887887359E+000
-4.5046490E-001	6.963224190895332E+000
-4.4998041E-001	7.013159923101341E+000
-4.4943622E-001	7.063209352424422E+000
-4.4893259E-001	7.112795859571296E+000
-4.4846484E-001	7.162388770654857E+000
-4.4800174E-001	7.211893868696421E+000
-4.4751719E-001	7.261630045489714E+000
-4.4700405E-001	7.311697798822508E+000
-4.4646937E-001	7.362055003502860E+000
-4.4596100E-001	7.411832671067827E+000
-4.4544783E-001	7.461596745348060E+000
-4.4498482E-001	7.511406335453074E+000
-4.4450980E-001	7.561259424081441E+000
-4.4394657E-001	7.611027477895875E+000
-4.4347635E-001	7.661652865197780E+000
-4.4296318E-001	7.711788590531292E+000
-4.4248348E-001	7.760889020710554E+000
-4.4194883E-001	7.811025933055561E+000
-4.4148812E-001	7.860907540244810E+000
-4.4102275E-001	7.909897454464157E+000
-4.4049048E-001	7.959808715800271E+000
-4.3995818E-001	8.009644390426260E+000
-4.3945459E-001	8.058491936220932E+000
-4.3895814E-001	8.107780344050042E+000
-4.3844974E-001	8.156903415608028E+000
-4.3797716E-001	8.205941364967699E+000
-4.3744972E-001	8.254899639482886E+000
-4.3699142E-001	8.304528552419811E+000
-4.3652123E-001	8.353655041974392E+000
-4.3600565E-001	8.402270385327661E+000
-4.3546626E-001	8.450673961619025E+000
-4.3498895E-001	8.500141812432503E+000
-4.3448526E-001	8.548489724796539E+000
-4.3395776E-001	8.598024589598907E+000
-4.3348998E-001	8.647184040992727E+000
-4.3300548E-001	8.695213160233364E+000
-4.3244457E-001	8.743292130407071E+000
-4.3201017E-001	8.789305933019988E+000
-4.3149701E-001	8.837521218632929E+000
-4.3096948E-001	8.885875914788401E+000
-4.3048498E-001	8.934471521282632E+000
-4.2990503E-001	8.982200001618565E+000
-4.2946106E-001	9.030212443666632E+000
-4.2900994E-001	9.079317662878054E+000
-4.2845619E-001	9.126622402864086E+000
-4.2801943E-001	9.174148446697245E+000
-4.2748004E-001	9.222747205188654E+000
-4.2691672E-001	9.270110719430989E+000
-4.2649427E-001	9.314919428296900E+000
-4.2592144E-001	9.362447987208896E+000
-4.2550376E-001	9.409423674557715E+000
-4.2500490E-001	9.456027694819113E+000
-4.2447266E-001	9.504283599003173E+000
-4.2397383E-001	9.551845459781170E+000
-4.2343912E-001	9.598352308321737E+000
-4.2288780E-001	9.645366399929856E+000
-4.2250827E-001	9.691942341067246E+000
-4.2204523E-001	9.737969457025414E+000
-4.2146528E-001	9.784139878523035E+000
-4.2091396E-001	9.831425873011000E+000
-4.2049378E-001	9.876661242037354E+000
-4.1993770E-001	9.921585263759269E+000
-4.1945800E-001	9.966105570131397E+000
-4.1897106E-001	1.001327921745795E+001
-4.1849366E-001	1.005869028809812E+001
-4.1792807E-001	1.010519470771868E+001
-4.1741487E-001	1.015149241928387E+001
-4.1695657E-001	1.019606953711335E+001
-4.1648161E-001	1.024239257436182E+001
-4.1595891E-001	1.028931234294493E+001
-4.1544336E-001	1.033526871089086E+001
-4.1494450E-001	1.038094080005834E+001
-4.1443133E-001	1.042782874140229E+001
-4.1394204E-001	1.046899927114760E+001
-4.1347423E-001	1.051248147047201E+001
-4.1294199E-001	1.055715093569733E+001
-4.1242403E-001	1.060131939837088E+001
-4.1196817E-001	1.064556898432815E+001
-4.1150033E-001	1.068972009040945E+001
-4.1096091E-001	1.073351630408399E+001
-4.1047639E-001	1.077803888982586E+001
-4.1002530E-001	1.082109909099943E+001
-4.0951690E-001	1.086730745785648E+001
-4.0894407E-001	1.091095220997792E+001
-4.0843809E-001	1.095562759883889E+001
-4.0792015E-001	1.099560607528372E+001
-4.0743324E-001	1.103578056997858E+001
-4.0692252E-001	1.107905495426860E+001
-4.0644985E-001	1.112166558338703E+001
-4.0595821E-001	1.116408651250573E+001
-4.0551424E-001	1.120682137636099E+001
-4.0491277E-001	1.124919406277225E+001
-4.0448317E-001	1.129174497264386E+001
-4.0395090E-001	1.133581059158403E+001
-4.0346161E-001	1.137804209757749E+001
-4.0292695E-001	1.141598602956162E+001
-4.0245438E-001	1.145906523508277E+001
-4.0194118E-001	1.150190430019703E+001
-4.0140656E-001	1.154532156631795E+001
-4.0095550E-001	1.158399229555471E+001
-4.0042797E-001	1.162560193022831E+001
-3.9991719E-001	1.166758032692482E+001
-3.9946848E-001	1.170995208475975E+001
-3.9893624E-001	1.175353909629685E+001
-3.9846367E-001	1.179590311158299E+001
-3.9792183E-001	1.183826917344357E+001
-3.9745402E-001	1.187937759167654E+001
-3.9691219E-001	1.192009613732077E+001
-3.9640382E-001	1.195998874674848E+001
-3.9596224E-001	1.200075468094857E+001
-3.9547294E-001	1.204183209975494E+001
-3.9490968E-001	1.208481479526134E+001
-3.9443710E-001	1.212469461438437E+001
-3.9400747E-001	1.216516524278882E+001
-3.9343947E-001	1.220539563028226E+001
-3.9298353E-001	1.224788151739804E+001
-3.9247754E-001	1.228942376987419E+001
-3.9194527E-001	1.232577244278693E+001
-3.9145598E-001	1.236222930824066E+001
-3.9089268E-001	1.240341484026502E+001
-3.9037472E-001	1.244269809631453E+001
-3.8994271E-001	1.248288002002113E+001
-3.8946775E-001	1.252134212331404E+001
-3.8892832E-001	1.256127458050707E+001
-3.8838655E-001	1.259960439074741E+001
-3.8795933E-001	1.263816243421809E+001
-3.8745332E-001	1.267618181705026E+001
-3.8693058E-001	1.271601351878798E+001
-3.8652244E-001	1.275751197925493E+001
-3.8598064E-001	1.279689085108836E+001
-3.8545793E-001	1.283596391190289E+001
-3.8496149E-001	1.287294940083568E+001
-3.8440296E-001	1.291253262424190E+001
-3.8390893E-001	1.295083029322339E+001
-3.8346976E-001	1.298832636415526E+001
-3.8300428E-001	1.302544532324623E+001
-3.8247445E-001	1.306383529606835E+001
-3.8193741E-001	1.310131431435025E+001
-3.8146007E-001	1.313923050422920E+001
-3.8094211E-001	1.317680988381190E+001
-3.8054115E-001	1.321356848657898E+001
-3.7990621E-001	1.324866228278614E+001
-3.7937877E-001	1.328630178812665E+001
-3.7887752E-001	1.332489045192662E+001
-3.7848371E-001	1.336191916930902E+001
-3.7801826E-001	1.340073785141215E+001
-3.7743112E-001	1.343917982299146E+001
-3.7696332E-001	1.347596195475904E+001
-3.7644777E-001	1.351438593674618E+001
-3.7598950E-001	1.355144314234292E+001
-3.7541908E-001	1.358804360588846E+001
-3.7495601E-001	1.362594372731087E+001
-3.7445956E-001	1.366142231245365E+001
-3.7396073E-001	1.369744043764933E+001
-3.7345234E-001	1.373257934160080E+001
-3.7288663E-001	1.376980833251474E+001
-3.7247851E-001	1.380681916700399E+001
-3.7195101E-001	1.384352352324350E+001
-3.7149513E-001	1.388235448444900E+001
-3.7096766E-001	1.391910870324202E+001
-3.7042585E-001	1.395588223481121E+001
-3.6992463E-001	1.399442978319127E+001
-3.6940435E-001	1.403641544816372E+001
-3.6894366E-001	1.407417683083206E+001
-3.6843050E-001	1.411005990506581E+001
-3.6793643E-001	1.415190295357001E+001
-3.6747336E-001	1.419027562915022E+001
-3.6694351E-001	1.422873855194251E+001
-3.6645660E-001	1.426856685144027E+001
-3.6591244E-001	1.430606797609056E+001
-3.6552337E-001	1.434484334263752E+001
-3.6497438E-001	1.438374925322364E+001
-3.6442545E-001	1.442308756079120E+001
-3.6395288E-001	1.446183138844301E+001
-3.6341581E-001	1.450054783570005E+001
-3.6289787E-001	1.453855020153715E+001
-3.6246109E-001	1.457570041921190E+001
-3.6195275E-001	1.461630284865987E+001
-3.6144432E-001	1.465461560575481E+001
-3.6090252E-001	1.469165281577043E+001
-3.6041084E-001	1.473197823890757E+001
-3.5992154E-001	1.477106910676574E+001
-3.5938212E-001	1.480870908519473E+001
-3.5891670E-001	1.484875257553438E+001
-3.5852286E-001	1.488987708447225E+001
-3.5797870E-001	1.492747603890825E+001
-3.5741064E-001	1.496580657572258E+001
-3.5697863E-001	1.500632998952091E+001
-3.5645354E-001	1.504611095625529E+001
-3.5597375E-001	1.508612506882548E+001
-3.5539854E-001	1.512951219981886E+001
-3.5499039E-001	1.517319310781291E+001
-3.5443905E-001	1.521346030556862E+001
-3.5400227E-001	1.525560396663582E+001
-3.5342464E-001	1.529510254547296E+001
-3.5293296E-001	1.533585956892250E+001
-3.5249618E-001	1.537795189738915E+001
-3.5192576E-001	1.541972679308321E+001
-3.5146990E-001	1.545864236794762E+001
-3.5092571E-001	1.550173981244308E+001
-3.5041970E-001	1.554129756502272E+001
-3.4997809E-001	1.557628766572924E+001
-3.4941006E-001	1.561234151843180E+001
-3.4896132E-001	1.565314522766170E+001
-3.4836465E-001	1.569602929930948E+001
-3.4792072E-001	1.574077358911782E+001
-3.4742662E-001	1.578220308689100E+001
-3.4696835E-001	1.582480382500450E+001
-3.4638122E-001	1.586554291526181E+001
-3.4592295E-001	1.590502031350548E+001
-3.4548140E-001	1.594587369533889E+001
-3.4497064E-001	1.599085705260610E+001
-3.4443358E-001	1.603468016035316E+001
-3.4396815E-001	1.607466931210249E+001
-3.4346929E-001	1.611572077802124E+001
-3.4289172E-001	1.615594512029662E+001
-3.4245014E-001	1.619766646752276E+001
-3.4193936E-001	1.623874973498823E+001
-3.4142861E-001	1.627952241757430E+001
-3.4093213E-001	1.632384223316927E+001
-3.4047863E-001	1.636880485299807E+001
-3.3992249E-001	1.641270656496327E+001
-3.3937594E-001	1.645956878320624E+001
-3.3891532E-001	1.650525454686644E+001
-3.3845463E-001	1.655054220578450E+001
-3.3797964E-001	1.659875156355867E+001
-3.3745459E-001	1.664460974868126E+001
-3.3685309E-001	1.669033805327718E+001
-3.3645928E-001	1.673218210385420E+001
-3.3599862E-001	1.677385702187625E+001
-3.3548072E-001	1.681599597138914E+001
-3.3498180E-001	1.686170118309713E+001
-3.3444241E-001	1.690945683675221E+001
-3.3397460E-001	1.695654172108544E+001
-3.3348057E-001	1.700249171767950E+001
-3.3293638E-001	1.704846605283461E+001
-3.3242318E-001	1.709362988211612E+001
-3.3189568E-001	1.713951128958219E+001
-3.3140883E-001	1.718744602923931E+001
-3.3097437E-001	1.723564869573187E+001
-3.3044693E-001	1.728039287019845E+001
-3.2998866E-001	1.732969716811903E+001
-3.2944205E-001	1.737727532370198E+001
-3.2893130E-001	1.742035484520523E+001
-3.2849213E-001	1.745802941936284E+001
-3.2832980E-001	1.747892611125516E+001