Ewe/V	I/mA	
-6.3995075E-001	-6.9093388E-003
-6.3991255E-001	-1.5350141E-003
-6.3977891E-001	-1.3568611E-003
-6.3947338E-001	-1.2618036E-003
-6.3928246E-001	-1.1790897E-003
-6.3932067E-001	-1.1925148E-003
-6.3901514E-001	-1.1042653E-003
-6.3888150E-001	-1.2551865E-003
-6.3874781E-001	-1.1216989E-003
-6.3848048E-001	-1.1747631E-003
-6.3828957E-001	-1.0430571E-003
-6.3817501E-001	-1.1318155E-003
-6.3796496E-001	-1.1455587E-003
-6.3783127E-001	-1.1299066E-003
-6.3764036E-001	-9.9641900E-004
-6.3741118E-001	-9.1357774E-004
-6.3743031E-001	-1.0163340E-003
-6.3716298E-001	-1.0475108E-003
-6.3708663E-001	-9.4507268E-004
-6.3685745E-001	-9.3508349E-004
-6.3668561E-001	-9.3298376E-004
-6.3645649E-001	-9.0078887E-004
-6.3645649E-001	-9.8057615E-004
-6.3622737E-001	-9.2089473E-004
-6.3597912E-001	-9.0371573E-004
-6.3580728E-001	-8.9907099E-004
-6.3571179E-001	-7.9892349E-004
-6.3546360E-001	-8.8354625E-004
-6.3546360E-001	-8.1686606E-004
-6.3519627E-001	-8.2946400E-004
-6.3498622E-001	-8.9856202E-004
-6.3481438E-001	-8.3550846E-004
-6.3471889E-001	-8.5007888E-004
-6.3445157E-001	-7.7169156E-004
-6.3427973E-001	-7.7283673E-004
-6.3422245E-001	-7.5737567E-004
-6.3384056E-001	-6.4666622E-004
-6.3389784E-001	-7.2537165E-004
-6.3372600E-001	-7.0265715E-004
-6.3347775E-001	-3.8217232E-004
-6.3332498E-001	-7.1589136E-004
-6.3315314E-001	-6.3285930E-004
-6.3311493E-001	-3.4565091E-004
-6.3280946E-001	-6.4189424E-004
-6.3267577E-001	-6.0556369E-004
-6.3248485E-001	-3.8013631E-004
-6.3237029E-001	-6.7466171E-004
-6.3221753E-001	-6.1606203E-004
-6.3181657E-001	-5.5205415E-004
-6.3191199E-001	-6.6702656E-004
-6.3164467E-001	-5.3837453E-004
-6.3139647E-001	-7.9720555E-004
-6.3118643E-001	-5.7820446E-004
-6.3120550E-001	-5.7508680E-004
-6.3084275E-001	-8.8265544E-004
-6.3093817E-001	-5.8132218E-004
-6.3074726E-001	-4.8276523E-004
-6.3051814E-001	-5.8113132E-004
-6.3044173E-001	-5.3678383E-004
-6.3021260E-001	-4.7449386E-004
-6.2986892E-001	1.4350678E-004
-6.2984979E-001	-4.5960533E-004
-6.2965888E-001	-4.3008279E-004
-6.2941062E-001	8.1228110E-004
-6.2942976E-001	-4.3250062E-004
-6.2918150E-001	-3.5831257E-004
-6.2899059E-001	1.4076310E-003
-6.2887597E-001	-3.5379510E-004
-6.2868506E-001	-4.6488628E-004
-6.2851322E-001	7.4407388E-004
-6.2836045E-001	-3.4011545E-004
-6.2815040E-001	-4.0775002E-004
-6.2801677E-001	-3.2172751E-004
-6.2790221E-001	-3.5742178E-004
-6.2773031E-001	-3.6244822E-004
-6.2746298E-001	-3.1835533E-004
-6.2752032E-001	-3.1606480E-004
-6.2711930E-001	-3.0709352E-004
-6.2696654E-001	-3.2999890E-004
-6.2687111E-001	-2.7801638E-004
-6.2677562E-001	-2.4989361E-004
-6.2656558E-001	-2.5746514E-004
-6.2627918E-001	-2.1699889E-004
-6.2616462E-001	-1.3695723E-004
-6.2605000E-001	-3.2070949E-004
-6.2593544E-001	-2.3685025E-004
-6.2570632E-001	-2.0236488E-004
-6.2559175E-001	-2.4715770E-004
-6.2536263E-001	-1.1029787E-004
-6.2522894E-001	-2.2838797E-004
-6.2505710E-001	-2.0287390E-004
-6.2477070E-001	-9.9990444E-005
-6.2459886E-001	-1.4688291E-004
-6.2444609E-001	-1.5000059E-004
-6.2435061E-001	-4.0754516E-005
-6.2419784E-001	-1.2041444E-004
-6.2408328E-001	-1.5979900E-004
-6.2379688E-001	-1.0838910E-004
-6.2366325E-001	-8.2811384E-005
-6.2345320E-001	5.3094038E-005
-6.2339592E-001	-2.5166113E-005
-6.2309039E-001	-3.2228614E-005
-6.2307131E-001	-3.3501139E-005
-6.2276578E-001	-3.5968540E-006
-6.2272757E-001	2.3635133E-005
-6.2255573E-001	-1.1995503E-005
-6.2240297E-001	4.5967910E-005
-6.2213564E-001	1.6127247E-005
-6.2211657E-001	-5.5134024E-005
-6.2173468E-001	4.3613738E-005
-6.2165833E-001	4.6745436E-006
-6.2165833E-001	1.1800672E-005
-6.2121916E-001	1.2760023E-004
-6.2106639E-001	3.0824885E-005
-6.2106639E-001	4.9849103E-005
-6.2077999E-001	1.1150284E-004
-6.2074178E-001	1.1678379E-004
-6.2068450E-001	1.4967851E-004
-6.2037897E-001	2.1693134E-004
-6.2011164E-001	1.1290260E-004
-6.1993980E-001	2.2520273E-004
-6.1997801E-001	1.1697468E-004
-6.1963427E-001	2.4689923E-004
-6.1950064E-001	1.8486376E-004
-6.1934787E-001	2.2456647E-004
-6.1909968E-001	2.3951862E-004
-6.1913782E-001	2.4931706E-004
-6.1879414E-001	2.5739757E-004
-6.1869866E-001	2.4028214E-004
-6.1864138E-001	2.2246680E-004
-6.1848861E-001	2.1559518E-004
-6.1824042E-001	2.5078043E-004
-6.1803037E-001	2.9780017E-004
-6.1782032E-001	3.0206313E-004
-6.1772484E-001	4.2409805E-004
-6.1759120E-001	3.7338800E-004
-6.1738116E-001	4.3262393E-004
-6.1720932E-001	4.1862621E-004
-6.1699927E-001	3.6759803E-004
-6.1688471E-001	4.7499893E-004
-6.1657917E-001	4.6367350E-004
-6.1648369E-001	4.3733229E-004
-6.1629277E-001	4.4534920E-004
-6.1604452E-001	4.8530637E-004
-6.1606365E-001	4.5648374E-004
-6.1581540E-001	4.7849838E-004
-6.1560535E-001	4.4986664E-004
-6.1558628E-001	4.1219997E-004
-6.1531895E-001	4.6278271E-004
-6.1518532E-001	4.8161609E-004
-6.1510891E-001	5.3741614E-004
-6.1493707E-001	5.0350343E-004
-6.1463153E-001	5.4199726E-004
-6.1465067E-001	6.2623835E-004
-6.1442155E-001	5.3334411E-004
-6.1423057E-001	5.7896407E-004
-6.1413509E-001	5.5370451E-004
-6.1394417E-001	6.8509241E-004
-6.1365777E-001	6.1001361E-004
-6.1358136E-001	6.4507156E-004
-6.1327583E-001	5.9118029E-004
-6.1310399E-001	5.6891114E-004
-6.1314219E-001	6.3616398E-004
-6.1285579E-001	6.3406426E-004
-6.1270303E-001	7.0080813E-004
-6.1253119E-001	7.8721240E-004
-6.1243570E-001	7.4782787E-004
-6.1218745E-001	6.9412735E-004
-6.1214930E-001	6.4329011E-004
-6.1186284E-001	7.9554744E-004
-6.1165285E-001	7.7416905E-004
-6.1150008E-001	7.2511326E-004
-6.1140460E-001	7.9777435E-004
-6.1119455E-001	7.8307668E-004
-6.1107999E-001	8.1291737E-004
-6.1088908E-001	7.1690558E-004
-6.1069810E-001	7.9287513E-004
-6.1056447E-001	7.9287513E-004
-6.1039257E-001	8.9117751E-004
-6.1006796E-001	8.5701025E-004
-6.0995340E-001	9.2407223E-004
-6.0985798E-001	9.1058348E-004
-6.0972428E-001	9.7650016E-004
-6.0966700E-001	9.6002099E-004
-6.0941881E-001	1.0000418E-003
-6.0920876E-001	9.6256606E-004
-6.0901779E-001	9.1669161E-004
-6.0882688E-001	1.0120035E-003
-6.0867411E-001	1.0563510E-003
-6.0855955E-001	1.0035412E-003
-6.0829222E-001	1.0333182E-003
-6.0812038E-001	1.0960536E-003
-6.0808218E-001	1.0703488E-003
-6.0792941E-001	1.1461910E-003
-6.0762393E-001	1.1949923E-003
-6.0756660E-001	1.0952902E-003
-6.0731840E-001	1.1035616E-003
-6.0726112E-001	1.1165413E-003
-6.0703200E-001	1.1490542E-003
-6.0672647E-001	1.2420120E-003
-6.0666919E-001	1.2059360E-003
-6.0653549E-001	1.2036455E-003
-6.0636365E-001	1.2784698E-003
-6.0624909E-001	1.1804219E-003
-6.0598177E-001	1.1519174E-003
-6.0579085E-001	1.2441752E-003
-6.0563809E-001	1.3603567E-003
-6.0554260E-001	1.3646833E-003
-6.0537076E-001	1.3680554E-003
-6.0519892E-001	1.3320430E-003
-6.0500795E-001	1.3232627E-003
-6.0485524E-001	1.2857231E-003
-6.0464519E-001	1.3419050E-003
-6.0470247E-001	1.2927221E-003
-6.0437787E-001	1.4674395E-003
-6.0422510E-001	1.3674191E-003
-6.0411054E-001	1.3749271E-003
-6.0390049E-001	1.3280347E-003
-6.0365224E-001	1.4535054E-003
-6.0357589E-001	1.4447249E-003
-6.0323220E-001	1.4682029E-003
-6.0309851E-001	1.5084782E-003
-6.0307944E-001	1.5121686E-003
-6.0281211E-001	1.5341197E-003
-6.0269755E-001	1.5919559E-003
-6.0262114E-001	1.6210966E-003
-6.0231566E-001	1.5558798E-003
-6.0214382E-001	1.6503008E-003
-6.0220110E-001	1.6116163E-003
-6.0185736E-001	1.6212239E-003
-6.0155189E-001	1.6740337E-003
-6.0160917E-001	1.6618810E-003
-6.0128456E-001	1.6279682E-003
-6.0117000E-001	1.7085826E-003
-6.0103631E-001	1.6782965E-003
-6.0092175E-001	1.7143725E-003
-6.0069263E-001	1.7619648E-003
-6.0057807E-001	1.7480307E-003
-6.0038710E-001	1.8007769E-003
-6.0002434E-001	1.7607559E-003
-6.0004342E-001	1.7668004E-003
-6.0002434E-001	1.7996951E-003