Ewe/V	I/mA	
-6.4302498E-001	-6.7445207E-003
-6.4292949E-001	-1.4031173E-003
-6.4285314E-001	-1.2502874E-003
-6.4258581E-001	-1.1450497E-003
-6.4243305E-001	-1.1772445E-003
-6.4228028E-001	-1.1148909E-003
-6.4212751E-001	-9.6657837E-004
-6.4203203E-001	-1.1376054E-003
-6.4170748E-001	-8.9690770E-004
-6.4170748E-001	-1.0095895E-003
-6.4159286E-001	-1.0011910E-003
-6.4130646E-001	-9.5315318E-004
-6.4115369E-001	-9.1154175E-004
-6.4094365E-001	-9.0097979E-004
-6.4084822E-001	-9.0244325E-004
-6.4081001E-001	-8.1788411E-004
-6.4048541E-001	-8.2602823E-004
-6.4033264E-001	-8.7393867E-004
-6.4014173E-001	-9.2808454E-004
-6.3998896E-001	-9.2439423E-004
-6.3985527E-001	-8.2501018E-004
-6.3966435E-001	-8.6643075E-004
-6.3953066E-001	-7.8766164E-004
-6.3930154E-001	-8.4638852E-004
-6.3909149E-001	-7.3268876E-004
-6.3911062E-001	-8.0363179E-004
-6.3890058E-001	-7.2683505E-004
-6.3859504E-001	-7.5438520E-004
-6.3857597E-001	-7.0055749E-004
-6.3834685E-001	-8.2119257E-004
-6.3809860E-001	-7.1671855E-004
-6.3809860E-001	-7.5285818E-004
-6.3775492E-001	-7.5763016E-004
-6.3769764E-001	-6.4272131E-004
-6.3760215E-001	-6.7917915E-004
-6.3733482E-001	-6.1987963E-004
-6.3712478E-001	-5.4785481E-004
-6.3693386E-001	-6.6244550E-004
-6.3680017E-001	-5.2316790E-004
-6.3668561E-001	-5.9302937E-004
-6.3657105E-001	-5.9220224E-004
-6.3634193E-001	-5.4454623E-004
-6.3609368E-001	-5.3360255E-004
-6.3607460E-001	-5.5339024E-004
-6.3588363E-001	-5.6197983E-004
-6.3569272E-001	-6.1078108E-004
-6.3552088E-001	-4.8651919E-004
-6.3534904E-001	-5.1763240E-004
-6.3515806E-001	-5.7273265E-004
-6.3502443E-001	-5.5065437E-004
-6.3489074E-001	-5.2711269E-004
-6.3468069E-001	-4.7315771E-004
-6.3452792E-001	-4.9052766E-004
-6.3427973E-001	-4.0781367E-004
-6.3408875E-001	-2.8673315E-004
-6.3393605E-001	-4.2238407E-004
-6.3382143E-001	-4.7271230E-004
-6.3355416E-001	-2.7693473E-004
-6.3345867E-001	-4.7124893E-004
-6.3324863E-001	-4.0265991E-004
-6.3313407E-001	-1.2874947E-004
-6.3303858E-001	-4.0902256E-004
-6.3290495E-001	-4.1226749E-004
-6.3259941E-001	-3.0079452E-004
-6.3244665E-001	-3.7052875E-004
-6.3221753E-001	-3.3082606E-004
-6.3214117E-001	-4.6119600E-004
-6.3216025E-001	-3.4609635E-004
-6.3183564E-001	-3.4800512E-004
-6.3153011E-001	-4.8963691E-004
-6.3154924E-001	-2.7661660E-004
-6.3118643E-001	-2.7814362E-004
-6.3109094E-001	-2.3793189E-004
-6.3105279E-001	-2.2482492E-004
-6.3084275E-001	-2.9525906E-004
-6.3057542E-001	4.1029116E-004
-6.3057542E-001	-2.2966049E-004
-6.3034630E-001	-3.2509971E-004
-6.3004076E-001	1.2889046E-003
-6.3015532E-001	-2.4696681E-004
-6.2990707E-001	-2.7108114E-004
-6.2967795E-001	1.4409074E-003
-6.2954432E-001	-1.5623595E-004
-6.2933427E-001	-2.2317063E-004
-6.2914330E-001	6.1446743E-004
-6.2885690E-001	-8.4592917E-005
-6.2883782E-001	-1.6896117E-004
-6.2864685E-001	-1.0062670E-004
-6.2845594E-001	-1.5629957E-004
-6.2843680E-001	-1.3275791E-004
-6.2816948E-001	-1.1456083E-004
-6.2795949E-001	-1.7220610E-004
-6.2782580E-001	-5.3352487E-005
-6.2765396E-001	-1.3568471E-004
-6.2746298E-001	-1.0291724E-004
-6.2732935E-001	-4.1136271E-005
-6.2719572E-001	-2.3320954E-005
-6.2710023E-001	-1.0126297E-004
-6.2687111E-001	-6.4868822E-005
-6.2664193E-001	-9.8527038E-005
-6.2643194E-001	-7.3585601E-005
-6.2627918E-001	2.6498306E-005
-6.2629825E-001	-4.0436385E-005
-6.2605000E-001	7.6190321E-005
-6.2566811E-001	6.9014582E-006
-6.2576360E-001	3.0824885E-005
-6.2566811E-001	5.3730291E-005
-6.2528622E-001	7.1100236E-005
-6.2520987E-001	9.8282608E-006
-6.2501895E-001	2.1330465E-004
-6.2477070E-001	7.9689758E-005
-6.2465614E-001	1.6437615E-004
-6.2457973E-001	1.3396285E-004
-6.2431246E-001	1.3618977E-004
-6.2425512E-001	9.1842354E-005
-6.2402600E-001	4.8958333E-005
-6.2373960E-001	2.0935983E-004
-6.2383509E-001	1.2938176E-004
-6.2351048E-001	2.0649665E-004
-6.2322402E-001	1.8562729E-004
-6.2324315E-001	2.2507549E-004
-6.2295675E-001	1.3618977E-004
-6.2291855E-001	1.5788629E-004
-6.2270850E-001	2.4282720E-004
-6.2244117E-001	2.0897808E-004
-6.2236482E-001	2.4161828E-004
-6.2225026E-001	2.0197922E-004
-6.2205929E-001	2.6885027E-004
-6.2184924E-001	2.0420612E-004
-6.2171561E-001	2.0554227E-004
-6.2150556E-001	1.6055857E-004
-6.2125731E-001	2.8532941E-004
-6.2118095E-001	2.9538237E-004
-6.2102818E-001	3.3152199E-004
-6.2083727E-001	3.0772583E-004
-6.2074178E-001	2.4085476E-004
-6.2056994E-001	2.8863800E-004
-6.2041718E-001	3.1453383E-004
-6.2018806E-001	3.5328214E-004
-6.2016892E-001	3.9947472E-004
-6.1990160E-001	3.7637842E-004
-6.1972976E-001	3.7593307E-004
-6.1951971E-001	4.4693984E-004
-6.1934787E-001	4.1983509E-004
-6.1919510E-001	4.2619769E-004
-6.1908054E-001	4.0857328E-004
-6.1887050E-001	4.5915603E-004
-6.1864138E-001	3.8840377E-004
-6.1846954E-001	5.2042800E-004
-6.1829770E-001	4.8530637E-004
-6.1820221E-001	5.1247474E-004
-6.1799216E-001	4.0857328E-004
-6.1776304E-001	5.2609073E-004
-6.1768669E-001	4.7868927E-004
-6.1747664E-001	5.3455302E-004
-6.1728567E-001	6.0804118E-004
-6.1726660E-001	5.2157324E-004
-6.1709476E-001	5.9232552E-004
-6.1678922E-001	6.2172080E-004
-6.1667466E-001	6.1542186E-004
-6.1650282E-001	5.6248490E-004
-6.1635005E-001	6.0422363E-004
-6.1627370E-001	6.0123322E-004
-6.1596817E-001	6.8661949E-004
-6.1583453E-001	6.0664141E-004
-6.1570084E-001	6.3877262E-004
-6.1554807E-001	6.6575018E-004
-6.1531895E-001	6.6104176E-004
-6.1526167E-001	6.6823151E-004
-6.1499435E-001	6.2897423E-004
-6.1476523E-001	7.3758402E-004
-6.1493707E-001	6.1853946E-004
-6.1447883E-001	6.8585598E-004
-6.1438334E-001	7.4859138E-004
-6.1423057E-001	6.8636495E-004
-6.1413509E-001	7.4191060E-004
-6.1377233E-001	7.1760541E-004
-6.1379141E-001	8.5847371E-004
-6.1348587E-001	7.4617355E-004
-6.1333317E-001	7.7315106E-004
-6.1325675E-001	8.0979965E-004
-6.1302763E-001	8.0070115E-004
-6.1277938E-001	8.1883458E-004
-6.1274123E-001	8.5745571E-004
-6.1255026E-001	8.1310829E-004
-6.1239749E-001	8.8036113E-004
-6.1222565E-001	8.6057332E-004
-6.1213017E-001	8.5083855E-004
-6.1174828E-001	9.6320233E-004
-6.1167192E-001	9.2903513E-004
-6.1151916E-001	9.5505815E-004
-6.1134732E-001	9.6695620E-004
-6.1125183E-001	9.8954351E-004
-6.1100364E-001	1.0393629E-003
-6.1081266E-001	9.5633068E-004
-6.1085087E-001	1.0334456E-003
-6.1060262E-001	1.0146121E-003
-6.1044985E-001	1.0786838E-003
-6.1037350E-001	1.0083131E-003
-6.1010617E-001	1.0338273E-003
-6.0987705E-001	9.8114496E-004
-6.0964793E-001	1.0153757E-003
-6.0951424E-001	1.0576871E-003
-6.0932332E-001	1.1222040E-003
-6.0926604E-001	1.1032433E-003
-6.0892230E-001	1.1171775E-003
-6.0884595E-001	1.1227767E-003
-6.0876960E-001	1.1651516E-003
-6.0850227E-001	1.1710689E-003
-6.0836858E-001	1.2272508E-003
-6.0819674E-001	1.1561167E-003
-6.0808218E-001	1.2659355E-003
-6.0781485E-001	1.2137620E-003
-6.0771936E-001	1.2503471E-003
-6.0747117E-001	1.2652992E-003
-6.0735661E-001	1.3289253E-003
-6.0728019E-001	1.3580024E-003
-6.0697472E-001	1.3294343E-003
-6.0682195E-001	1.3241534E-003
-6.0674554E-001	1.3205904E-003
-6.0642093E-001	1.3490949E-003
-6.0632551E-001	1.3440048E-003
-6.0601997E-001	1.3635380E-003
-6.0607725E-001	1.3709186E-003
-6.0579085E-001	1.4096033E-003
-6.0579085E-001	1.4230284E-003
-6.0546625E-001	1.4149479E-003
-6.0525620E-001	1.4508330E-003
-6.0527527E-001	1.4606314E-003
-6.0498887E-001	1.5750948E-003
-6.0479796E-001	1.4305364E-003
-6.0472155E-001	1.5594427E-003
-6.0449243E-001	1.5261027E-003
-6.0437787E-001	1.5261663E-003
-6.0416782E-001	1.4888179E-003
-6.0403413E-001	1.5756040E-003
-6.0386229E-001	1.5091783E-003
-6.0370958E-001	1.5696867E-003
-6.0359496E-001	1.5696231E-003
-6.0317492E-001	1.6118072E-003
-6.0327035E-001	1.6812870E-003
-6.0311764E-001	1.6494738E-003