Ewe/V	I/mA
-0.7108528	-0.00093792513
-0.71064281	-0.00067772414
-0.71054739	-0.0007758484
-0.71050918	-0.00045710377
-0.71024197	-0.00062248955
-0.71003199	-0.00048815738
-0.70984107	-0.00050743861
-0.70989835	-0.0004286592
-0.70951658	-0.00039563296
-0.70947838	-0.00047619408
-0.70921111	-0.00040498719
-0.70900112	-0.00021440227
-0.7089439	-0.00037978802
-0.70863843	-0.00053155603
-0.70852393	-0.00012945037
-0.708543	-0.00046925794
-0.7081421	-0.00039391484
-0.70795125	-0.00045634015
-0.70774126	-0.00046174906
-0.70735943	-0.00037437907
-0.70720673	-0.00040428722
-0.70697767	-0.00031411732
-0.70669132	-0.00035904319
-0.70642406	-0.00040015104
-0.70621407	-0.00035007077
-0.70596594	-0.00035217067
-0.7057941	-0.00040842345
-0.70546961	-0.0002461558
-0.7053169	-0.00034949803
-0.70489693	-0.00023571977
-0.70485872	-0.00032926232
-0.70457238	4.4363555e-06
-0.70441967	-0.00034962533
-0.70415241	-0.00035306159
-0.7039997	-0.00023820151
-0.70401877	-0.00031322645
-0.70375156	-0.00023692883
-0.70350337	-0.00035057982
-0.70346522	-0.00052430166
-0.7032361	-0.0004182868
-0.70294976	-0.00066805171
-0.70300704	-0.00027491857
-0.70277798	-0.00023616523
-0.70233893	-0.00028974537
-0.70233893	-0.00041656868
-0.70195717	-0.00037940621
-0.70174718	-0.0003257624
-0.70146084	-0.00024157413
-0.70119357	-0.00034377095
-0.70094538	-0.00029655427
-0.70075452	-0.0002829365
-0.70035362	-0.00031990805
-0.70016271	-0.00030018142
-0.69981915	-0.00021580221
-0.69972366	-0.00018958485
-0.69939917	-0.0003302168
-0.69924641	-0.00022795638
-0.69894099	-0.00025932814
-0.69871193	-0.00022522009
-0.6984638	-0.00030909025
-0.69825381	-0.00033378039
-0.69796747	-0.00018283962
-0.69794834	-0.0002762549
-0.69762385	-0.00022572916
-0.69747114	8.3279352e-05
-0.69749022	-0.00017552165
-0.69726115	-0.00020835699
-0.69703203	-0.00027052782
-0.69665027	-0.00016845825
-0.69644028	-0.00015655861
-0.69619215	-0.0001491134
-0.69582945	-0.00017036728
-0.69563854	-0.00011176001
-0.69537127	3.5454748e-06
-0.69533312	-0.00012964128
-0.69500858	-0.00021192053
-0.69468403	-0.00012881403
-0.69443589	-9.0697038e-05
-0.69422591	-6.2634281e-05
-0.69390142	-0.00012938674
-0.69376779	-0.00021981118
-0.69346231	-0.00022254746
-0.69327146	-0.00012391419
-0.69294691	-0.0001629857
-0.69273692	2.8935596e-05
-0.69241244	-0.00019537559
-0.69214517	-7.3961201e-05
-0.6918779	8.3788429e-05
-0.6917634	2.54357e-05
-0.69164884	-5.2261876e-05
-0.69149613	-1.9299268e-05
-0.69109523	0.0001040878
-0.69113344	-9.8177452e-06
-0.69094253	-1.8217483e-05
-0.69061798	7.0170667e-05
-0.69063711	0.00012661437
-0.69056076	0.00021468436
-0.69012171	1.1245235e-05
-0.69006443	0.0001203782
-0.6899308	0.00016186782
-0.68975896	0.00025299223
-0.68954897	-9.1177671e-06
-0.68945354	0.0001905033
-0.68930084	0.00019527589
-0.68920541	0.00013673223
-0.68878543	0.00016237689
-0.68870908	0.00015913154
-0.68868995	7.4561438e-05
-0.68838453	0.00013081422
-0.6882509	0.00021290258
-0.68804091	0.00014825005
-0.68796456	8.3724801e-05
-0.68765914	0.00022715671
-0.68764007	0.00020513921
-0.6873728	0.0002867821
-0.68723917	0.00017262202
-0.68720102	0.00020093932
-0.6869719	0.00015862247
-0.68676192	0.00034208037
-0.68651378	0.00020170295
-0.68639922	0.00018025815
-0.68611288	0.00020093932
-0.68617016	0.0001629496
-0.68592203	0.00018986694
-0.68561655	0.00028557304
-0.68559748	0.00024904692
-0.68555933	0.00026921902
-0.68531114	0.00019635767
-0.68527293	0.00016587679
-0.68494844	0.00031758114
-0.68473846	0.0002562376
-0.6846621	0.00018025815
-0.68437576	0.00030167255
-0.68429941	0.00016263143
-0.68412757	-4.027017e-06
-0.68403214	0.00012903247
-0.68380308	0.00019610311
-0.68361217	0.00010956037
-0.68338311	0.00019063057
-0.68315405	0.00020768457
-0.68311584	8.4361134e-05
-0.68296313	0.00024669242
-0.68275315	0.00027736422
-0.68258137	0.00023396556
-0.68242866	0.00019470317
-0.68208504	0.0002732916
-0.68214232	0.00032254463
-0.68187505	0.00024605609
-0.68170321	0.00030599968
-0.68153143	0.00024465614
-0.68135965	0.00029200013
-0.68130237	0.00028207316
-0.68113053	0.00033883503
-0.68097782	0.00025019233
-0.6806342	0.00039438787
-0.68048149	0.00027628243
-0.68042421	0.00028239135
-0.68017608	0.00043390482
-0.68013787	0.00034812567
-0.67985153	0.00033126253
-0.6796416	0.00018522162
-0.6796416	0.0003957242
-0.67946976	0.00037924285
-0.6792025	0.0002980454
-0.67904979	0.00023186563
-0.67893529	0.00030364521
-0.67862982	0.00030294523
-0.67859167	0.00045547687
-0.67841983	0.00033654421
-0.67826712	0.00027125533
-0.67813349	0.00032776265
-0.67784715	0.00031529032
-0.67765629	0.00034666204
-0.67765629	0.00030542698
-0.67733175	0.00025171955
-0.67708361	0.00039540601
-0.67717904	0.00030485427
-0.67694998	0.00046578565
-0.67668271	0.00038617905
-0.67672092	0.00034055318
-0.67641544	0.00035429822
-0.67614824	0.00036937956
-0.67611003	0.00030930867
-0.67603368	0.00041398723
-0.67574733	0.00034723477
-0.67549914	0.00037917926
-0.67532736	0.00040978738
-0.67515558	0.00020660278
-0.67517465	0.00047195816
-0.67486924	0.00049957546
-0.67479283	0.00034074407
-0.67460197	0.00042766865
-0.67452562	0.00037867014
-0.67408657	0.00055678282
-0.67414379	0.00050460256
-0.67399108	0.00039604233
-0.67383838	0.00050065725
-0.67359024	0.00044198637
-0.67343748	0.00034869838
-0.67320842	0.00044974976
-0.67317027	0.00042976855
-0.67286479	0.00059903599
-0.67267394	0.00041882347
-0.67271209	0.00045783134
-0.67259759	0.00057402771
-0.67221576	0.00042970496
-0.67215854	0.00046915823
-0.67175764	0.00060749939
-0.67179579	0.00054494682
-0.67160493	0.00048767583
-0.67141402	0.00054469227
-0.67126131	0.00061787182
-0.67108953	0.00070384186
-0.67103225	0.00056810974
